Stethoscope	ECG
0.0454712	0.00762939
0.154114	-0.00183105
0.195923	-0.00579834
0.166321	-0.00640869
0.0875854	-0.00396729
-0.00732422	0.000610352
-0.0848389	0.00579834
-0.122986	0.0100708
-0.12146	0.0137329
-0.0946045	0.0164795
-0.0634766	0.0161743
-0.038147	0.010376
-0.0177002	0
0.00823975	-0.0106812
0.0317383	-0.0192261
0.0491333	-0.0256348
0.0561523	-0.0302124
0.0540161	-0.0350952
0.0424194	-0.0366211
0.0231934	-0.0332642
0.0012207	-0.0262451
-0.0198364	-0.0161743
-0.0286865	-0.00457764
-0.027771	0.00152588
-0.0360107	-0.000305176
-0.0463867	-0.00183105
-0.038147	0.000305176
-0.0201416	0.00640869
-0.0149536	0.0128174
-0.0259399	0.0204468
-0.0314331	0.0305176
-0.0180054	0.0384521
0.0164795	0.043335
0.0588989	0.0479126
0.083313	0.0546265
0.0808716	0.0616455
0.0543213	0.0643921
0.0247192	0.0592041
0.0131226	0.0485229
0.0198364	0.0387573
0.0119019	0.0326538
-0.0170898	0.0299072
-0.0463867	0.032959
-0.0811768	0.0375366
-0.117188	0.0436401
-0.117188	0.0527954
-0.0546265	0.0646973
0.0350952	0.0772095
0.0875854	0.0872803
0.0845337	0.0924683
0.0463867	0.0933838
0.00732422	0.090332
-0.0186157	0.0848389
-0.0274658	0.0787354
-0.0253296	0.0701904
-0.0131226	0.057373
0.00244141	0.0396729
0.00732422	0.0204468
0.00549316	0.00762939
0.00946045	0.00335693
0.0234985	0.000305176
0.0228882	-0.00640869
-0.00671387	-0.0134277
-0.0488281	-0.017395
-0.0686646	-0.0183105
-0.0448608	-0.0189209
0.00488281	-0.0189209
0.0488281	-0.0164795
0.0653076	-0.0158691
0.062561	-0.0189209
0.0537109	-0.0231934
0.0448608	-0.0244141
0.0393677	-0.0216675
0.0393677	-0.0198364
0.0418091	-0.0201416
0.0289917	-0.0210571
-0.0167847	-0.020752
-0.0759888	-0.0228882
-0.114136	-0.0238037
-0.105591	-0.0216675
-0.0512695	-0.0201416
0.00518799	-0.0198364
0.0317383	-0.0195313
0.0265503	-0.0167847
0.0137329	-0.0119019
0.0109863	-0.00793457
0.0180054	-0.00671387
0.0244141	-0.00823975
0.0158691	-0.010376
-0.0119019	-0.0131226
-0.0405884	-0.0180054
-0.055542	-0.0244141
-0.0500488	-0.0292969
-0.032959	-0.0326538
-0.0134277	-0.0375366
-0.0012207	-0.0460815
0.00793457	-0.0531006
0.012207	-0.0534058
0.0106812	-0.0479126
-0.00274658	-0.0421143
-0.0204468	-0.038147
-0.0323486	-0.0372314
-0.027771	-0.0396729
0.00732422	-0.0439453
0.0750732	-0.0463867
0.140686	-0.0393677
0.134277	-0.0189209
0.0952148	0.0131226
0.0283813	0.0567627
-0.00213623	0.113831
0.0598145	0.185242
0.189514	0.271606
0.26947	0.369873
0.143433	0.46814
-0.0949097	0.559998
-0.339355	0.641174
-0.449219	0.700378
-0.428162	0.723877
-0.348206	0.705872
-0.256653	0.65094
-0.151978	0.567932
-0.0112915	0.466309
0.14801	0.352478
0.307922	0.235901
0.401611	0.123291
0.384216	0.0201416
0.262146	-0.0662231
0.109863	-0.1297
0	-0.170288
-0.0341797	-0.190735
-0.0280762	-0.196838
-0.132446	-0.191345
-0.279846	-0.177612
-0.316467	-0.158997
-0.218811	-0.140076
-0.144043	-0.120544
-0.152588	-0.101318
-0.14801	-0.0830078
-0.00732422	-0.0643921
0.251465	-0.0466919
0.501709	-0.0314331
0.645447	-0.0204468
0.676575	-0.0158691
0.630493	-0.0167847
0.4776	-0.0189209
0.161133	-0.0186157
-0.274048	-0.0158691
-0.663452	-0.0109863
-0.89325	-0.00579834
-0.952454	-0.00183105
-0.856018	0.0012207
-0.637512	0.00396729
-0.344849	0.00640869
-0.0119019	0.00823975
0.361023	0.00732422
0.726929	0.00183105
0.961609	-0.00762939
0.944519	-0.0210571
0.667114	-0.0311279
0.245667	-0.0314331
-0.158997	-0.0244141
-0.437622	-0.0149536
-0.574036	-0.00701904
-0.601501	0
-0.541382	0.00946045
-0.398865	0.0216675
-0.182495	0.0317383
0.0698853	0.0363159
0.296631	0.0372314
0.439148	0.0366211
0.455933	0.0357056
0.342407	0.0363159
0.154419	0.038147
-0.0256348	0.0390625
-0.134888	0.0375366
-0.157166	0.0344849
-0.104675	0.0311279
-0.0100708	0.0296021
0.078125	0.0289917
0.126038	0.0305176
0.118103	0.0338745
0.0650024	0.0350952
-0.0112915	0.0314331
-0.088501	0.0265503
-0.142212	0.0247192
-0.15564	0.0265503
-0.13031	0.0338745
-0.0891113	0.043335
-0.0622559	0.0466919
-0.0592041	0.0445557
-0.0543213	0.0418091
-0.0354004	0.0384521
-0.00732422	0.03479
0.0177002	0.0323486
0.0350952	0.0344849
0.0421143	0.0424194
0.0424194	0.0509644
0.0408936	0.0540161
0.0506592	0.0546265
0.0775146	0.057373
0.105286	0.0613403
0.11261	0.0640869
0.0814819	0.0643921
0.0216675	0.0604248
-0.0341797	0.0534058
-0.0646973	0.0457764
-0.0643921	0.0418091
-0.0402832	0.0415039
-0.00732422	0.0405884
0.0228882	0.0393677
0.0430298	0.0408936
0.0494385	0.0469971
0.0430298	0.0570679
0.0140381	0.067749
-0.0354004	0.078125
-0.0946045	0.0881958
-0.140076	0.0982666
-0.150452	0.108032
-0.121765	0.117188
-0.0714111	0.125122
-0.017395	0.131531
0.0326538	0.138855
0.067749	0.150757
0.083313	0.163879
0.0839233	0.17334
0.0726318	0.178833
0.0512695	0.181885
0.0292969	0.184021
0.0109863	0.183716
-0.00823975	0.18158
-0.0274658	0.1828
-0.0384521	0.187378
-0.0335693	0.194397
-0.0170898	0.198669
-0.00152588	0.198059
0.00549316	0.194702
0.00640869	0.192871
0.0109863	0.193481
0.0183105	0.194397
0.0125122	0.193481
-0.00823975	0.191956
-0.0320435	0.191345
-0.0344849	0.19043
-0.017395	0.188293
0.00762939	0.185852
0.0274658	0.179443
0.0457764	0.17334
0.0738525	0.178223
0.104675	0.187988
0.0997925	0.190125
0.0515747	0.180359
-0.00854492	0.161743
-0.0469971	0.143127
-0.0509644	0.128784
-0.0384521	0.115051
-0.0289917	0.0979614
-0.03479	0.0790405
-0.0534058	0.0637817
-0.0680542	0.0527954
-0.0701904	0.0463867
-0.0445557	0.045166
0.0115967	0.0479126
0.0744629	0.0549316
0.0961304	0.0613403
0.0521851	0.0646973
-0.0210571	0.0689697
-0.0735474	0.071106
-0.0827026	0.0686646
-0.0549316	0.0628662
-0.0137329	0.0561523
0.0143433	0.0515747
0.0265503	0.0482178
0.0314331	0.0454712
0.0271606	0.0448608
0.0161743	0.0457764
0.0106812	0.0494385
0.0158691	0.0537109
0.0372314	0.0549316
0.0549316	0.0515747
0.0494385	0.0460815
0.0198364	0.0378418
-0.0128174	0.0256348
-0.0289917	0.0125122
-0.0363159	0.0012207
-0.071106	-0.00579834
-0.133362	-0.00946045
-0.21698	-0.00976563
-0.247498	-0.0088501
-0.146484	-0.00823975
0.0756836	-0.00762939
0.327454	-0.00671387
0.461731	-0.00396729
0.370178	0.000915527
0.120239	0.00427246
-0.0967407	0.00152588
-0.172119	-0.00396729
-0.161133	-0.00701904
-0.162659	-0.00610352
-0.176392	-0.00488281
-0.159302	-0.00427246
-0.103149	-0.00335693
-0.0189209	-0.00366211
0.0811768	-0.0012207
0.178833	0.00518799
0.219421	0.010376
0.166016	0.0128174
0.0537109	0.0134277
-0.0274658	0.0125122
-0.0442505	0.0106812
-0.0561523	0.00823975
-0.102844	0.00671387
-0.154419	0.00610352
-0.15564	0.00671387
-0.0949097	0.010376
0.00793457	0.0164795
0.107727	0.0195313
0.158386	0.0192261
0.152283	0.0195313
0.111084	0.0247192
0.0628662	0.0292969
0.0241089	0.0299072
-0.00762939	0.0299072
-0.0317383	0.0308228
-0.0491333	0.0296021
-0.057373	0.0238037
-0.0579834	0.0167847
-0.0680542	0.0140381
-0.078125	0.0161743
-0.0662231	0.0219727
-0.0354004	0.0268555
-0.0100708	0.0280762
0.000305176	0.0238037
0.0198364	0.0167847
0.0534058	0.0134277
0.0811768	0.0134277
0.0863647	0.0158691
0.0735474	0.0195313
0.0488281	0.0219727
0.0238037	0.0219727
0.00335693	0.0213623
-0.0109863	0.0213623
-0.0323486	0.0231934
-0.0640869	0.027771
-0.0878906	0.0274658
-0.0860596	0.0186157
-0.055542	0.00762939
-0.0201416	-0.00244141
0.0088501	-0.00946045
0.0305176	-0.0119019
0.0402832	-0.0115967
0.0283813	-0.00823975
-0.00152588	-0.0012207
-0.0283813	0.00640869
-0.0411987	0.0192261
-0.0192261	0.0344849
0.00518799	0.0442505
0.0384521	0.0494385
0.0747681	0.0518799
0.0720215	0.0500488
0.0161743	0.0445557
-0.0131226	0.0375366
0.0198364	0.0320435
0.0250244	0.0289917
-0.0238037	0.0262451
-0.0439453	0.0210571
-0.0500488	0.0152588
-0.0454712	0.012207
-0.0308228	0.0131226
0.010376	0.0146484
0.0390625	0.0158691
0.032959	0.017395
0.00854492	0.0183105
-0.00640869	0.0177002
-0.00610352	0.015564
-0.00701904	0.0134277
-0.015564	0.0128174
-0.0357056	0.0146484
-0.0491333	0.0189209
-0.0384521	0.0228882
-0.0234985	0.0244141
-0.00732422	0.0222778
-0.00946045	0.0201416
-0.00518799	0.0204468
0.00640869	0.020752
0.0305176	0.0189209
0.0509644	0.015564
0.0534058	0.0100708
0.0332642	0.00244141
0.0238037	-0.00579834
0.0341797	-0.0170898
0.0491333	-0.027771
0.0418091	-0.03479
0.0143433	-0.0378418
-0.00335693	-0.0378418
-0.00213623	-0.0357056
0.00793457	-0.0335693
-0.000305176	-0.0317383
-0.0234985	-0.0238037
-0.0546265	-0.0119019
-0.0778198	-0.00305176
-0.0790405	0.00305176
-0.050354	0.00823975
-0.00640869	0.0119019
0.0311279	0.0134277
0.0506592	0.0134277
0.0469971	0.0109863
0.0280762	0.00549316
-0.00152588	-0.00152588
-0.015564	-0.00427246
-0.015564	-0.000610352
0.00274658	0.00640869
0.0286865	0.0146484
0.0579834	0.0204468
0.06073	0.020752
0.0344849	0.0204468
-0.0170898	0.0238037
-0.0582886	0.0271606
-0.0692749	0.0286865
-0.0442505	0.0280762
-0.00549316	0.0256348
0.010376	0.0213623
-0.00610352	0.0170898
-0.0338745	0.0158691
-0.0482178	0.0170898
-0.0491333	0.0189209
-0.0402832	0.0216675
-0.0289917	0.0231934
-0.00793457	0.020752
0.020752	0.015564
0.0436401	0.0106812
0.0482178	0.00640869
0.045166	0.00244141
0.0549316	-0.00213623
0.0671387	-0.00518799
0.0485229	-0.00701904
0.00640869	-0.00610352
-0.0384521	-0.00305176
-0.0631714	-0.00427246
-0.0616455	-0.00823975
-0.0366211	-0.00976563
-0.00701904	-0.00823975
0.0177002	-0.00549316
0.0244141	-0.00427246
0.0112915	-0.00457764
-0.0112915	-0.00305176
-0.0170898	0.000305176
0.0012207	0.00274658
0.0250244	0.00640869
0.038147	0.0152588
0.0320435	0.0280762
0.00457764	0.0427246
-0.0231934	0.055542
-0.0344849	0.0634766
-0.00762939	0.0701904
0.038147	0.0799561
0.0811768	0.0912476
0.282288	0.101318
0.176697	0.107117
-0.261841	0.107727
-0.675964	0.104675
-0.598145	0.101318
-0.113525	0.0964355
0.352173	0.0894165
0.522766	0.0823975
0.437012	0.0790405
0.239258	0.0799561
0.0543213	0.083313
-0.0619507	0.0869751
-0.111389	0.0900269
-0.112	0.0918579
-0.0860596	0.0927734
-0.0790405	0.0933838
-0.0952148	0.0918579
-0.108948	0.088501
-0.0784302	0.0827026
-0.00488281	0.0747681
0.0576782	0.0662231
0.0692749	0.0576782
0.0457764	0.0512695
0.0115967	0.0445557
-0.0119019	0.0378418
-0.0204468	0.0344849
-0.00457764	0.032959
0.0192261	0.0296021
0.0299072	0.0216675
0.0204468	0.00946045
0.0112915	-0.00488281
0.0250244	-0.015564
0.0430298	-0.0192261
0.0265503	-0.0186157
-0.0292969	-0.020752
-0.0744629	-0.0283813
-0.0839233	-0.0375366
-0.0756836	-0.0424194
-0.0564575	-0.0408936
-0.0317383	-0.03479
0.00549316	-0.0265503
0.0411987	-0.0186157
0.050354	-0.0109863
0.0360107	-0.00213623
0.0109863	0.00640869
-0.00854492	0.0140381
-0.000915527	0.0204468
0.0320435	0.0238037
0.0634766	0.0234985
0.0668335	0.0189209
0.0476074	0.012207
0.0384521	0.00457764
0.043335	-0.00518799
0.0402832	-0.017395
0.0146484	-0.0296021
-0.0158691	-0.038147
-0.0390625	-0.0378418
-0.0552368	-0.0305176
-0.0695801	-0.022583
-0.0793457	-0.0161743
-0.0784302	-0.0109863
-0.0604248	-0.00823975
-0.0280762	-0.00823975
0.00579834	-0.0115967
0.0311279	-0.0198364
0.0512695	-0.0344849
0.0616455	-0.050354
0.0582886	-0.0634766
0.0375366	-0.0708008
0.00427246	-0.0671387
-0.0241089	-0.0521851
-0.0302124	-0.0262451
-0.000305176	0.015564
0.043335	0.0765991
0.0723267	0.155334
0.0613403	0.248413
0.0183105	0.350647
-0.027771	0.454712
-0.0576782	0.55603
-0.078125	0.652466
-0.101318	0.734558
-0.131836	0.784912
-0.153198	0.795898
-0.159607	0.769958
-0.158691	0.713806
-0.145569	0.629578
-0.0985718	0.517273
-0.00305176	0.384216
0.123291	0.242004
0.241699	0.103149
0.315247	-0.0201416
0.316162	-0.122986
0.248108	-0.205078
0.223389	-0.262756
0.202332	-0.289307
0.0543213	-0.288086
-0.160522	-0.267029
-0.284119	-0.237427
-0.294189	-0.205078
-0.339966	-0.170898
-0.442505	-0.137329
-0.428467	-0.107117
-0.143127	-0.0802612
0.33905	-0.0564575
0.772095	-0.0378418
0.959167	-0.0247192
0.882263	-0.0134277
0.618286	-0.00152588
0.213013	0.00793457
-0.290527	0.0125122
-0.717773	0.0128174
-0.892944	0.00762939
-0.809937	-0.00152588
-0.585938	-0.0140381
-0.33844	-0.0289917
-0.133972	-0.0421143
0.00610352	-0.0524902
0.101318	-0.0588989
0.197754	-0.0604248
0.322266	-0.0595093
0.432129	-0.0582886
0.45105	-0.0543213
0.338135	-0.0473022
0.0897217	-0.0363159
-0.231018	-0.0216675
-0.520325	-0.00579834
-0.683899	0.00610352
-0.682983	0.0115967
-0.51239	0.0119019
-0.189819	0.00976563
0.216064	0.00915527
0.583191	0.00793457
0.797729	0.000610352
0.812988	-0.0137329
0.648193	-0.0271606
0.372314	-0.0366211
0.0784302	-0.0439453
-0.151672	-0.0491333
-0.299377	-0.0524902
-0.38147	-0.0512695
-0.386047	-0.0439453
-0.306396	-0.0317383
-0.127563	-0.0186157
0.0872803	-0.00732422
0.231018	0.00183105
0.234985	0.010376
0.134583	0.017395
0.0363159	0.0189209
-0.0320435	0.0125122
-0.071106	0.00305176
-0.0924683	-0.00335693
-0.100098	-0.00488281
-0.10376	-0.00335693
-0.100708	-0.00366211
-0.0772095	-0.00762939
-0.0402832	-0.00976563
-0.022583	-0.00457764
-0.0299072	0.00427246
-0.0332642	0.00854492
-0.00518799	0.00579834
0.0488281	0.00152588
0.0534058	-0.0012207
0.0152588	-0.00457764
0.0152588	-0.0088501
0.138245	-0.0131226
0.158997	-0.0167847
-0.0775146	-0.0186157
-0.334473	-0.0177002
-0.342407	-0.0140381
-0.083313	-0.00732422
0.154724	0.0012207
0.237732	0.0106812
0.202942	0.0204468
0.14801	0.0274658
0.0595093	0.0305176
-0.0698853	0.0302124
-0.15686	0.0292969
-0.150146	0.0292969
-0.0610352	0.0292969
0.0418091	0.0292969
0.0927734	0.0308228
0.083313	0.0363159
0.0497437	0.0466919
0.0247192	0.0616455
0.000915527	0.0814819
-0.0369263	0.10376
-0.072937	0.122681
-0.071106	0.136108
-0.0180054	0.146179
0.0616455	0.154724
0.126648	0.159607
0.144653	0.158997
0.110474	0.155334
0.0466919	0.149841
-0.0222778	0.144348
-0.067749	0.142517
-0.0744629	0.14679
-0.0531006	0.154419
-0.0335693	0.161438
-0.038147	0.166626
-0.0537109	0.172424
-0.0521851	0.181274
-0.0259399	0.191956
0.0149536	0.201416
0.0543213	0.20813
0.0949097	0.205994
0.152283	0.191956
0.159912	0.169983
0.03479	0.153198
-0.108032	0.145874
-0.128784	0.143433
-0.128174	0.141602
-0.159607	0.13855
-0.176392	0.132446
-0.160522	0.127258
-0.12085	0.123596
-0.055542	0.121155
0.0305176	0.118713
0.0982666	0.115051
0.109253	0.109253
0.0787354	0.100403
0.0436401	0.0888062
0.0317383	0.0741577
0.0439453	0.0619507
0.0793457	0.0588989
0.106812	0.0634766
0.101929	0.0683594
0.0534058	0.0686646
-0.0140381	0.0653076
-0.0601196	0.0598145
-0.0646973	0.0524902
-0.0387573	0.0439453
-0.00305176	0.0338745
0.0305176	0.022583
0.0650024	0.00854492
0.088501	-0.00488281
0.0808716	-0.0143433
0.0445557	-0.0189209
0	-0.0198364
-0.0393677	-0.0195313
-0.0598145	-0.0204468
-0.0543213	-0.0195313
-0.0204468	-0.0128174
0.0180054	-0.00427246
0.0244141	0.000610352
-0.00549316	0.000610352
-0.0448608	-0.00183105
-0.0646973	-0.00579834
-0.0665283	-0.00732422
-0.0732422	-0.00610352
-0.111084	-0.00610352
-0.170288	-0.00915527
-0.198975	-0.0137329
-0.173645	-0.0180054
-0.0500488	-0.0216675
0.174561	-0.0244141
0.447998	-0.0265503
0.632019	-0.0292969
0.531921	-0.0332642
0.183105	-0.0363159
-0.166626	-0.0350952
-0.323792	-0.0302124
-0.330811	-0.0259399
-0.321655	-0.0244141
-0.340881	-0.0234985
-0.361633	-0.0210571
-0.34668	-0.017395
-0.262756	-0.0143433
-0.0894165	-0.0128174
0.155334	-0.012207
0.374451	-0.0100708
0.485535	-0.00671387
0.461426	-0.00427246
0.323181	-0.00488281
0.133667	-0.00610352
-0.0463867	-0.00518799
-0.154419	-0.00396729
-0.161133	-0.00457764
-0.103149	-0.00610352
-0.0357056	-0.00640869
0.0134277	-0.00640869
0.0411987	-0.00762939
0.0494385	-0.0109863
0.0408936	-0.0143433
0.020752	-0.0161743
0.00183105	-0.0131226
-0.0213623	-0.00793457
-0.0610352	-0.00457764
-0.108337	-0.00213623
-0.129395	0.00335693
-0.111084	0.0115967
-0.067749	0.0195313
-0.0244141	0.0271606
0.0134277	0.0335693
0.038147	0.0390625
0.0485229	0.039978
0.0619507	0.0357056
0.0811768	0.027771
0.0875854	0.0192261
0.0631714	0.0115967
0.0323486	0.00305176
0.0210571	-0.00701904
0.0253296	-0.0143433
0.0283813	-0.0161743
0.0228882	-0.0164795
0.0100708	-0.0167847
-0.010376	-0.0149536
-0.0479126	-0.012207
-0.103149	-0.0100708
-0.149536	-0.00915527
-0.148621	-0.0119019
-0.0863647	-0.0161743
-0.00793457	-0.0170898
0.0308228	-0.0170898
0.0296021	-0.0180054
0.015564	-0.0146484
-0.00793457	-0.00488281
-0.0354004	0.00762939
-0.0494385	0.0198364
-0.0375366	0.0302124
-0.0164795	0.0369263
0.00457764	0.0378418
0.032959	0.0350952
0.0668335	0.0299072
0.0823975	0.0222778
0.078125	0.0125122
0.0671387	0.000915527
0.0674438	-0.00946045
0.0717163	-0.0152588
0.0692749	-0.0152588
0.0534058	-0.0112915
0.0222778	-0.00823975
-0.0134277	-0.00823975
-0.0354004	-0.00915527
-0.0439453	-0.00823975
-0.0469971	-0.00549316
-0.0427246	-0.00610352
-0.0280762	-0.010376
0.0109863	-0.0143433
0.0445557	-0.0186157
0.0366211	-0.0250244
0.00183105	-0.0317383
-0.0219727	-0.0335693
-0.0161743	-0.0323486
-0.0158691	-0.0302124
-0.0296021	-0.0253296
-0.0424194	-0.0161743
-0.0378418	-0.00244141
-0.0234985	0.010376
-0.00854492	0.0149536
-0.000915527	0.0115967
0.000915527	0.00854492
-0.00549316	0.0119019
-0.0146484	0.017395
-0.0338745	0.0195313
-0.0637817	0.0137329
-0.0939941	0.00274658
-0.0979614	-0.00793457
-0.0595093	-0.0146484
0.00640869	-0.015564
0.0552368	-0.0152588
0.0585938	-0.0192261
0.0402832	-0.0253296
0.0445557	-0.0299072
0.0631714	-0.0286865
0.057373	-0.0231934
0.0296021	-0.0152588
0.0119019	-0.00549316
0.0112915	0.00335693
0.0088501	0.0112915
0.00854492	0.0195313
0.0100708	0.0280762
0.0134277	0.0335693
0.0125122	0.03479
0.0201416	0.0338745
0.0308228	0.0308228
0.0326538	0.0247192
0.0253296	0.017395
0.017395	0.0119019
0.0167847	0.00915527
0.0128174	0.00823975
0	0.00640869
-0.0137329	0.00457764
-0.0314331	0
-0.0460815	-0.00854492
-0.0469971	-0.0183105
-0.0411987	-0.0289917
-0.0292969	-0.0424194
-0.00732422	-0.0579834
0.0177002	-0.0732422
0.0231934	-0.0875854
0.00610352	-0.100403
-0.000915527	-0.102539
0.00793457	-0.0946045
0.0177002	-0.0839233
0.0311279	-0.0708008
0.0491333	-0.0543213
0.06073	-0.0332642
0.0485229	-0.0100708
0.00701904	0.0088501
-0.0213623	0.022583
-0.0378418	0.0323486
-0.0854492	0.0402832
-0.180054	0.0436401
-0.257874	0.0366211
-0.23468	0.0204468
-0.12207	0.00640869
-0.00457764	0.000915527
0.0524902	-0.0012207
0.0631714	-0.00549316
0.0640869	-0.00793457
0.0692749	-0.00427246
0.0708008	0.00610352
0.0671387	0.0201416
0.0759888	0.0341797
0.0930786	0.043335
0.0915527	0.0463867
0.0762939	0.0454712
0.0796509	0.0418091
0.0909424	0.03479
0.0820923	0.0234985
0.0497437	0.00793457
0.012207	-0.00854492
-0.0106812	-0.0210571
-0.0332642	-0.0271606
-0.0527954	-0.0296021
-0.0531006	-0.0305176
-0.0314331	-0.0305176
-0.0164795	-0.0311279
-0.00854492	-0.0283813
0.0109863	-0.0210571
0.0308228	-0.0140381
0.0360107	-0.0109863
0.0588989	-0.0115967
0.545959	-0.0131226
0.557251	-0.0125122
-0.324097	-0.00946045
-1.32416	-0.00488281
-1.43707	0
-0.531616	0.000610352
0.452881	-0.00183105
0.898132	-0.00427246
0.820618	-0.00274658
0.558472	0.00305176
0.295715	0.00793457
0.0494385	0.0128174
-0.169983	0.0164795
-0.305786	0.0183105
-0.326843	0.0195313
-0.255127	0.0250244
-0.151062	0.0360107
-0.0286865	0.0512695
0.110779	0.0668335
0.175171	0.0820923
0.106506	0.0961304
0.0216675	0.106201
-0.114441	0.115051
-0.245361	0.12207
-0.30304	0.126953
-0.20752	0.128479
0.0140381	0.125732
0.227966	0.116272
0.35553	0.101624
0.354309	0.0845337
0.280762	0.0662231
0.181274	0.0473022
0.0668335	0.0280762
-0.0640869	0.0088501
-0.168457	-0.0088501
-0.196228	-0.0201416
-0.148621	-0.022583
-0.0762939	-0.0189209
-0.0238037	-0.0106812
-0.00152588	-0.00366211
0.00183105	-0.00366211
0.0115967	-0.0100708
0.0216675	-0.0180054
0.00427246	-0.0231934
-0.0241089	-0.0308228
-0.0219727	-0.039978
0.0244141	-0.0494385
0.065918	-0.06073
0.0588989	-0.0741577
0.00793457	-0.088501
-0.0506592	-0.0973511
-0.0704956	-0.0891113
-0.050354	-0.0708008
-0.015564	-0.0552368
0.00152588	-0.045166
-0.00976563	-0.038147
-0.0378418	-0.0302124
-0.0668335	-0.0186157
-0.0778198	-0.0100708
-0.0631714	-0.0112915
-0.0302124	-0.0170898
0.000915527	-0.0201416
0.0088501	-0.0222778
0.0158691	-0.0253296
0.0457764	-0.0274658
0.0695801	-0.0268555
0.0442505	-0.0268555
-0.0158691	-0.0271606
-0.0500488	-0.0253296
-0.0299072	-0.0219727
0.0320435	-0.0195313
0.109863	-0.0204468
0.167847	-0.0256348
0.177612	-0.0326538
0.14801	-0.0390625
0.110474	-0.0454712
0.0769043	-0.0518799
0.0463867	-0.055542
0.0756836	-0.0534058
0.301819	-0.045166
0.144958	-0.0311279
-0.397339	-0.00762939
-0.890808	0.0292969
-0.835876	0.0784302
-0.301819	0.137024
0.211792	0.206909
0.443115	0.282593
0.459595	0.359497
0.400085	0.436096
0.298462	0.513
0.12146	0.585632
-0.0747681	0.639954
-0.220947	0.663757
-0.276489	0.656128
-0.266724	0.618591
-0.210266	0.554504
-0.117798	0.465393
-0.0143433	0.357361
0.0701904	0.241699
0.131226	0.128479
0.159302	0.0219727
0.141296	-0.0726318
0.078125	-0.148315
0.0305176	-0.202637
0.0115967	-0.236206
-0.0744629	-0.252075
-0.18158	-0.252991
-0.207214	-0.242615
-0.137634	-0.22522
-0.0695801	-0.204773
-0.100098	-0.186157
-0.160828	-0.172729
-0.0946045	-0.155945
0.158081	-0.1297
0.483093	-0.098877
0.698547	-0.0686646
0.71228	-0.0408936
0.540161	-0.0167847
0.233154	0.00213623
-0.152283	0.0158691
-0.525208	0.0231934
-0.745239	0.022583
-0.735168	0.0152588
-0.517883	0.00305176
-0.19043	-0.0143433
0.108337	-0.0335693
0.258484	-0.050354
0.245361	-0.0628662
0.158081	-0.0692749
0.0927734	-0.0708008
0.0863647	-0.0656128
0.140076	-0.055542
0.222778	-0.0421143
0.274048	-0.0286865
0.205994	-0.0186157
-0.0146484	-0.0134277
-0.322266	-0.0143433
-0.581055	-0.0228882
-0.676575	-0.0378418
-0.567322	-0.0524902
-0.289917	-0.0665283
0.0662231	-0.0854492
0.386047	-0.0991821
0.577087	-0.0982666
0.586853	-0.0860596
0.424805	-0.0680542
0.167847	-0.0463867
-0.0717163	-0.0219727
-0.205383	0.00335693
-0.223694	0.0228882
-0.151062	0.0350952
-0.0283813	0.0402832
0.0888062	0.0393677
0.160217	0.0335693
0.1651	0.0234985
0.110168	0.0088501
0.0213623	-0.00823975
-0.0375366	-0.0238037
-0.0485229	-0.032959
-0.0668335	-0.03479
-0.135498	-0.0341797
-0.209961	-0.0338745
-0.0878906	-0.0314331
0.35614	-0.0256348
0.254517	-0.0189209
-0.406494	-0.0125122
-0.977173	-0.00732422
-0.826416	-0.00579834
-0.1297	-0.00610352
0.478821	-0.00671387
0.707703	-0.00915527
0.653992	-0.0134277
0.510864	-0.0204468
0.330811	-0.0296021
0.134888	-0.038147
-0.0344849	-0.038147
-0.142517	-0.0302124
-0.194092	-0.0204468
-0.210266	-0.0143433
-0.19928	-0.012207
-0.150452	-0.0109863
-0.0799561	-0.00823975
-0.0469971	-0.0012207
-0.0454712	0.00610352
-0.0415039	0.00976563
-0.0216675	0.00488281
0.0088501	-0.00518799
0.0418091	-0.00793457
0.067749	0
0.067749	0.0161743
0.0234985	0.0344849
-0.0415039	0.0485229
-0.0689697	0.0585938
-0.045166	0.0704956
-0.00366211	0.0854492
0.0183105	0.0970459
0.00213623	0.0979614
-0.0360107	0.0888062
-0.0628662	0.0772095
-0.0631714	0.0744629
-0.0506592	0.0820923
-0.0460815	0.0924683
-0.0540161	0.100403
-0.0546265	0.106201
0.00549316	0.114136
0.0982666	0.127869
0.166016	0.147705
0.169678	0.168457
0.137024	0.183411
0.106506	0.19165
0.0744629	0.194397
0.0274658	0.192566
-0.0222778	0.187683
-0.0280762	0.180969
-0.0137329	0.173035
-0.0216675	0.164795
-0.0759888	0.154724
-0.09552	0.144348
-0.0457764	0.136108
0.0146484	0.128479
0.0119019	0.118713
-0.0363159	0.108337
-0.0668335	0.0967407
-0.0512695	0.0836182
0.000305176	0.0674438
0.0512695	0.0497437
0.0762939	0.038147
0.0665283	0.0338745
0.0448608	0.0323486
0.0274658	0.0308228
0.0131226	0.0302124
-0.00488281	0.0323486
-0.0180054	0.0366211
-0.0170898	0.0427246
-0.0161743	0.0491333
-0.0253296	0.0524902
-0.0415039	0.0512695
-0.0518799	0.0442505
-0.0466919	0.0338745
-0.0418091	0.0256348
-0.0488281	0.0180054
-0.0708008	0.00946045
-0.0750732	0.000610352
-0.0515747	-0.00732422
-0.000305176	-0.0100708
0.0500488	-0.00549316
0.0686646	-0.0012207
0.0488281	-0.00366211
0.0131226	-0.0109863
-0.00946045	-0.0152588
-0.000610352	-0.0143433
0.0210571	-0.0112915
0.0335693	-0.0112915
0.0296021	-0.0146484
0.0320435	-0.0198364
0.0482178	-0.0234985
0.0610352	-0.0238037
0.0463867	-0.0234985
0.00518799	-0.0238037
-0.0427246	-0.0256348
-0.0735474	-0.0296021
-0.0750732	-0.0350952
-0.0747681	-0.0411987
-0.118103	-0.0494385
-0.177917	-0.0595093
-0.195618	-0.0701904
-0.0518799	-0.0811768
0.275269	-0.090332
0.636902	-0.098877
0.7547	-0.109558
0.476074	-0.122375
0.0177002	-0.132141
-0.323792	-0.1297
-0.434875	-0.117493
-0.438538	-0.102234
-0.440369	-0.0897217
-0.429077	-0.0814819
-0.341187	-0.0747681
-0.158997	-0.0656128
0.0671387	-0.0543213
0.248413	-0.0473022
0.329285	-0.0439453
0.325623	-0.0430298
0.283203	-0.0448608
0.215759	-0.0463867
0.111084	-0.0454712
-0.00854492	-0.0402832
-0.101929	-0.0305176
-0.141907	-0.0167847
-0.137939	-0.00305176
-0.0994873	0.00854492
-0.0442505	0.0137329
0.00762939	0.0134277
0.0216675	0.015564
-0.00762939	0.017395
-0.062561	0.0131226
-0.108337	0.00183105
-0.127563	-0.0112915
-0.106201	-0.0216675
-0.0622559	-0.0274658
-0.0344849	-0.0314331
-0.0115967	-0.03479
0.0283813	-0.0341797
0.0692749	-0.0311279
0.0872803	-0.0286865
0.0881958	-0.0268555
0.100708	-0.0247192
0.133972	-0.0213623
0.169067	-0.0167847
0.182495	-0.0128174
0.14801	-0.012207
0.0765991	-0.0186157
0.000915527	-0.0311279
-0.0531006	-0.0442505
-0.090332	-0.0552368
-0.114136	-0.062561
-0.107727	-0.0671387
-0.0704956	-0.072937
-0.0366211	-0.0784302
-0.0360107	-0.0817871
-0.0460815	-0.0811768
-0.0463867	-0.0750732
-0.0344849	-0.062561
-0.0119019	-0.0476074
0.00946045	-0.0375366
0.0131226	-0.032959
0.00274658	-0.0305176
-0.00701904	-0.0311279
-0.0106812	-0.0344849
-0.00793457	-0.0378418
-0.00640869	-0.0369263
-0.00457764	-0.0317383
0.00457764	-0.0262451
0.0180054	-0.0213623
0.0274658	-0.0131226
0.0332642	-0.000915527
0.0335693	0.00823975
0.0256348	0.012207
0.0140381	0.0146484
0.000915527	0.0158691
-0.0177002	0.0119019
-0.0534058	-0.00152588
-0.0854492	-0.0189209
-0.0933838	-0.0326538
-0.0759888	-0.0411987
-0.0442505	-0.045166
-0.00366211	-0.045166
0.0354004	-0.0418091
0.0549316	-0.032959
0.0576782	-0.0228882
0.0524902	-0.0146484
0.0454712	-0.00915527
0.0366211	-0.00671387
0.0238037	-0.00915527
0.00976563	-0.0164795
-0.00305176	-0.0241089
-0.00976563	-0.0302124
-0.00823975	-0.0344849
-0.00701904	-0.0390625
-0.010376	-0.0457764
-0.0106812	-0.0527954
0	-0.0552368
0.00335693	-0.0527954
-0.00457764	-0.0491333
-0.0149536	-0.0473022
-0.0119019	-0.0527954
0.000610352	-0.0640869
0.0204468	-0.0769043
0.0439453	-0.0875854
0.0619507	-0.09552
0.0506592	-0.098877
0.0137329	-0.0946045
-0.0131226	-0.0863647
-0.017395	-0.0787354
-0.0158691	-0.0701904
-0.0216675	-0.0598145
-0.022583	-0.0482178
-0.0146484	-0.0326538
-0.00976563	-0.0164795
-0.00915527	-0.00488281
-0.00915527	0.0012207
-0.00213623	0.0012207
0.0195313	-0.00427246
0.0384521	-0.0109863
0.0387573	-0.0198364
0.00976563	-0.0305176
-0.0216675	-0.0387573
-0.0418091	-0.0415039
-0.0753784	-0.0411987
-0.111084	-0.0405884
-0.124207	-0.038147
-0.0872803	-0.03479
-0.00610352	-0.0296021
0.0695801	-0.0228882
0.106812	-0.0158691
0.101929	-0.0137329
0.0762939	-0.0180054
0.0479126	-0.0216675
0.0289917	-0.0244141
0.0186157	-0.0271606
0.00518799	-0.0289917
-0.0167847	-0.0289917
-0.0515747	-0.0283813
-0.0778198	-0.0274658
-0.0787354	-0.0247192
-0.0512695	-0.0204468
-0.0244141	-0.0167847
-0.00183105	-0.017395
0.0183105	-0.0216675
0.0436401	-0.0286865
0.0552368	-0.0390625
0.0561523	-0.0531006
0.0469971	-0.0686646
0.0283813	-0.083313
0.000610352	-0.0933838
-0.0161743	-0.0973511
-0.00518799	-0.0973511
0.0198364	-0.0967407
0.03479	-0.0927734
0.0250244	-0.085144
0.00366211	-0.0778198
-0.0109863	-0.0732422
-0.00366211	-0.0714111
0.00213623	-0.065918
-0.000915527	-0.0561523
-0.0137329	-0.0454712
-0.0341797	-0.0363159
-0.0506592	-0.0308228
-0.0479126	-0.0250244
-0.0198364	-0.015564
0.00244141	-0.00488281
0.00244141	0.00183105
-0.0143433	0.00427246
-0.0262451	0.00396729
-0.020752	0.00549316
-0.0231934	0.0100708
-0.0305176	0.0161743
-0.0323486	0.0213623
-0.0177002	0.0201416
-0.00976563	0.0146484
-0.0115967	0.00946045
-0.00213623	0.00671387
0.0201416	0.0088501
0.0424194	0.0186157
0.0363159	0.0299072
0.017395	0.0390625
0.00671387	0.0454712
0.00915527	0.0479126
0.020752	0.0485229
0.0341797	0.0521851
0.0463867	0.0592041
0.0415039	0.0646973
0.0271606	0.0643921
0.0140381	0.0595093
0.0115967	0.0524902
0.00457764	0.0421143
-0.0134277	0.0299072
-0.0219727	0.0204468
-0.017395	0.0152588
-0.0161743	0.0109863
-0.0219727	0.00457764
-0.0189209	-0.00457764
0.0109863	-0.015564
0.0497437	-0.0280762
0.0665283	-0.0411987
0.0411987	-0.0488281
-0.00793457	-0.0476074
-0.0460815	-0.0415039
-0.0457764	-0.0332642
-0.0134277	-0.0228882
0.0112915	-0.0131226
0.000610352	-0.00671387
-0.0341797	-0.000915527
-0.0497437	0.00854492
-0.0302124	0.0204468
-0.00274658	0.0271606
0.0100708	0.0244141
0.0134277	0.012207
0.00457764	-0.00457764
-0.0100708	-0.0195313
-0.0204468	-0.0289917
-0.0213623	-0.0289917
-0.022583	-0.0234985
-0.0320435	-0.0183105
-0.0488281	-0.017395
-0.0592041	-0.020752
-0.0674438	-0.0216675
-0.0592041	-0.0161743
-0.0180054	-0.00762939
0.0479126	-0.000915527
0.110779	0.00213623
0.135193	0.00244141
0.118103	0.00183105
0.0665283	0.000610352
-0.00335693	-0.0012207
-0.0500488	-0.00396729
-0.0460815	-0.00915527
-0.0115967	-0.017395
0.0143433	-0.0268555
0.012207	-0.0366211
0.00549316	-0.0473022
0.0149536	-0.0582886
0.0274658	-0.0674438
0.0271606	-0.0726318
0.00457764	-0.0753784
-0.0234985	-0.0769043
-0.0302124	-0.0778198
-0.0250244	-0.0772095
-0.0189209	-0.0753784
-0.0134277	-0.0750732
0.00244141	-0.0769043
0.0192261	-0.0823975
0.0259399	-0.0897217
0.0216675	-0.0985718
0.00946045	-0.105896
-0.00549316	-0.107117
-0.0134277	-0.101929
-0.00152588	-0.0924683
0.0195313	-0.0808716
0.0195313	-0.0671387
-0.00579834	-0.0454712
-0.0378418	-0.00976563
-0.0512695	0.039978
-0.0418091	0.110168
-0.012207	0.202332
0.0265503	0.305786
0.0415039	0.406189
0.0259399	0.497742
-0.0170898	0.58197
-0.0744629	0.652466
-0.135498	0.700684
-0.172119	0.721436
-0.160828	0.706787
-0.0933838	0.652771
-0.00457764	0.565186
0.0643921	0.454712
0.112	0.330505
0.1651	0.200195
0.226746	0.0735474
0.252686	-0.0341797
0.206299	-0.116882
0.104675	-0.177612
0.0332642	-0.219727
-0.0332642	-0.24353
-0.177612	-0.248413
-0.324097	-0.238037
-0.325317	-0.217896
-0.198669	-0.194397
-0.112305	-0.171814
-0.132141	-0.150757
-0.149841	-0.133057
-0.0402832	-0.118408
0.178223	-0.105896
0.415039	-0.0939941
0.59021	-0.0827026
0.673523	-0.0759888
0.641174	-0.0738525
0.473022	-0.0750732
0.167542	-0.0738525
-0.202637	-0.0671387
-0.525818	-0.0579834
-0.71991	-0.0531006
-0.78949	-0.0561523
-0.770264	-0.0637817
-0.673523	-0.0732422
-0.480652	-0.0769043
-0.184021	-0.072937
0.190125	-0.067749
0.556335	-0.0656128
0.795288	-0.0643921
0.813904	-0.0604248
0.619507	-0.0527954
0.312805	-0.0439453
0.0216675	-0.0335693
-0.19989	-0.0222778
-0.369568	-0.0115967
-0.509033	-0.00183105
-0.586548	0.00427246
-0.526123	0.00396729
-0.294189	0.00152588
0.0518799	0.00274658
0.369873	0.0106812
0.530396	0.0198364
0.482483	0.0268555
0.282288	0.0299072
0.0518799	0.0283813
-0.106812	0.0228882
-0.153503	0.0183105
-0.112915	0.0170898
-0.0302124	0.017395
0.0488281	0.0134277
0.105896	0.00427246
0.132751	-0.00701904
0.121155	-0.0158691
0.0732422	-0.0189209
0.00213623	-0.0170898
-0.0750732	-0.0134277
-0.13855	-0.010376
-0.169373	-0.00793457
-0.172424	-0.00610352
-0.156555	-0.00518799
-0.12207	-0.00671387
-0.0689697	-0.0115967
-0.00427246	-0.0186157
0.0427246	-0.0271606
0.0558472	-0.0320435
0.0387573	-0.0326538
0.00823975	-0.0326538
-0.0170898	-0.0320435
-0.0305176	-0.0305176
-0.0289917	-0.0296021
-0.00213623	-0.0274658
0.0546265	-0.0238037
0.122375	-0.0183105
0.15686	-0.0140381
0.120544	-0.0140381
0.0335693	-0.0152588
-0.0418091	-0.0143433
-0.0726318	-0.0128174
-0.0616455	-0.0106812
-0.0253296	-0.00671387
0.0231934	0.000915527
0.0592041	0.0115967
0.0656128	0.0216675
0.0408936	0.0311279
0.00579834	0.0415039
-0.0228882	0.0524902
-0.0601196	0.0634766
-0.117798	0.0793457
-0.154114	0.0930786
-0.124207	0.09552
-0.0372314	0.0918579
0.0561523	0.0897217
0.114441	0.0906372
0.119324	0.0939941
0.0756836	0.0979614
0.0161743	0.0979614
-0.0302124	0.0939941
-0.0527954	0.0924683
-0.06073	0.0967407
-0.0579834	0.10498
-0.0418091	0.114136
-0.0128174	0.122986
0.0177002	0.13092
0.0360107	0.138245
0.0314331	0.145874
0.0186157	0.152893
0.0115967	0.157776
0.00823975	0.160522
0.00976563	0.163269
0.020752	0.166321
0.0360107	0.167236
0.0415039	0.1651
0.0283813	0.161438
0.00335693	0.15686
-0.0115967	0.149841
-0.0112915	0.13855
-0.00244141	0.124817
0.00946045	0.113525
0.00518799	0.108032
-0.0186157	0.103455
-0.0344849	0.0946045
-0.0460815	0.0848389
-0.0466919	0.0808716
-0.0375366	0.0817871
-0.0152588	0.0811768
0.0186157	0.0778198
0.0613403	0.0759888
0.0933838	0.0784302
0.0958252	0.0842285
0.0473022	0.0881958
-0.0500488	0.0823975
-0.13031	0.0708008
-0.140381	0.057373
-0.0857544	0.045166
-0.0228882	0.0384521
0.0198364	0.0335693
0.0564575	0.0253296
0.0839233	0.0167847
0.0823975	0.0115967
0.0485229	0.00946045
0.0100708	0.00823975
-0.0198364	0.0115967
-0.0439453	0.0204468
-0.0549316	0.0305176
-0.0402832	0.0369263
-0.0158691	0.0378418
0.00396729	0.0341797
0.0164795	0.0268555
0.032959	0.017395
0.0494385	0.00762939
0.0579834	-0.000915527
0.0518799	-0.00823975
0.0292969	-0.0158691
0.0012207	-0.0250244
-0.0167847	-0.03479
-0.0210571	-0.0436401
-0.0192261	-0.0497437
-0.0195313	-0.0521851
-0.0320435	-0.0543213
-0.0653076	-0.0592041
-0.147095	-0.0683594
-0.227966	-0.0830078
-0.245056	-0.101929
-0.159607	-0.116272
0.0473022	-0.120239
0.350647	-0.118103
0.653687	-0.115051
0.679626	-0.11261
0.32959	-0.108643
-0.147705	-0.0991821
-0.405579	-0.0823975
-0.391235	-0.0592041
-0.324707	-0.0375366
-0.339355	-0.0216675
-0.365906	-0.00915527
-0.294189	0
-0.112915	0.00640869
0.117188	0.00854492
0.323181	0.00518799
0.450439	-0.00488281
0.471497	-0.017395
0.380249	-0.0250244
0.178223	-0.0302124
-0.0827026	-0.0387573
-0.301514	-0.0473022
-0.394897	-0.0491333
-0.338135	-0.0445557
-0.171814	-0.0357056
0.022583	-0.0253296
0.149536	-0.015564
0.182495	-0.00762939
0.164185	0.0012207
0.138855	0.0088501
0.104675	0.0100708
0.0543213	0.00823975
0.00335693	0.00762939
-0.0418091	0.00671387
-0.083313	0.00335693
-0.121155	-0.0012207
-0.153503	-0.00488281
-0.161438	-0.00701904
-0.133667	-0.00762939
-0.0762939	-0.00640869
-0.00427246	-0.00518799
0.0576782	-0.00610352
0.09552	-0.0119019
0.114441	-0.0213623
0.123596	-0.0308228
0.111694	-0.0396729
0.0704956	-0.0485229
0.0283813	-0.0540161
0.00793457	-0.0543213
-0.00457764	-0.0543213
-0.0204468	-0.0549316
-0.032959	-0.0552368
-0.0265503	-0.0540161
-0.00854492	-0.0500488
0.00213623	-0.0427246
-0.00610352	-0.03479
-0.0241089	-0.0289917
-0.0289917	-0.0274658
-0.012207	-0.0289917
0.0134277	-0.0317383
0.0299072	-0.0296021
0.0393677	-0.0234985
0.0494385	-0.0170898
0.0527954	-0.0131226
0.0238037	-0.00915527
-0.0415039	-0.00396729
-0.114746	0.00274658
-0.150757	0.00915527
-0.128479	0.0161743
-0.062561	0.0216675
0.00671387	0.0213623
0.0549316	0.0170898
0.0811768	0.0115967
0.0881958	0.00579834
0.0650024	0.000610352
0.0112915	-0.00518799
-0.0570679	-0.0109863
-0.112	-0.0152588
-0.131531	-0.017395
-0.103455	-0.0192261
-0.0418091	-0.0189209
0.0253296	-0.0158691
0.0714111	-0.0106812
0.0927734	-0.00579834
0.101624	-0.00366211
0.0979614	-0.00518799
0.0726318	-0.00946045
0.0292969	-0.0149536
-0.00274658	-0.0186157
-0.0183105	-0.0210571
-0.0311279	-0.0253296
-0.0473022	-0.0320435
-0.0549316	-0.0418091
-0.043335	-0.0521851
-0.015564	-0.0598145
0.0158691	-0.0634766
0.0335693	-0.0628662
0.0344849	-0.0582886
0.0234985	-0.050354
0.00762939	-0.0454712
-0.00488281	-0.0491333
0	-0.0564575
0.0274658	-0.0585938
0.0582886	-0.0585938
0.0765991	-0.062561
0.0643921	-0.065918
0.0265503	-0.0662231
-0.0152588	-0.0640869
-0.0427246	-0.0610352
-0.0512695	-0.0579834
-0.0430298	-0.0527954
-0.0274658	-0.043335
-0.0189209	-0.0308228
-0.0238037	-0.0198364
-0.0317383	-0.0115967
-0.0238037	-0.00244141
0.00152588	0.00701904
0.0396729	0.00854492
0.0640869	-0.0012207
0.039978	-0.010376
-0.0161743	-0.0112915
-0.06073	-0.00610352
-0.0732422	-0.00152588
-0.0662231	0.000915527
-0.0616455	0.00305176
-0.0567627	0.00427246
-0.043335	0.00274658
-0.0140381	-0.000915527
0.0250244	-0.00305176
0.06073	-0.000915527
0.0695801	0.00305176
0.0408936	0.00549316
0.00549316	0.00335693
-0.0088501	-0.00183105
-0.00305176	-0.00854492
0.000610352	-0.0167847
-0.00366211	-0.022583
0.00213623	-0.0241089
0.0143433	-0.0256348
0.0164795	-0.0283813
0.00213623	-0.0317383
-0.0167847	-0.0344849
-0.0213623	-0.0375366
-0.00854492	-0.0418091
0.00946045	-0.0454712
0.0183105	-0.0469971
0.0167847	-0.045166
0.0219727	-0.0408936
0.0393677	-0.0418091
0.0598145	-0.0500488
0.067749	-0.0637817
0.0558472	-0.0720215
0.0286865	-0.0723267
-0.00915527	-0.0704956
-0.0421143	-0.0698853
-0.0588989	-0.0646973
-0.0564575	-0.0543213
-0.0405884	-0.045166
-0.0274658	-0.0424194
-0.0131226	-0.039978
-0.00152588	-0.0314331
-0.00579834	-0.0170898
-0.0305176	-0.000610352
-0.0558472	0.0115967
-0.0585938	0.0149536
-0.0402832	0.0119019
-0.0149536	0.00640869
0.0192261	0.00183105
0.062561	-0.000305176
0.0866699	0.000610352
0.0613403	0.0012207
0.00579834	-0.0012207
-0.0241089	-0.00854492
-0.00793457	-0.0152588
0.0167847	-0.017395
0.00579834	-0.0149536
-0.0350952	-0.010376
-0.055542	-0.00732422
-0.0167847	-0.00640869
0.0424194	-0.00549316
0.065918	-0.00213623
0.0366211	0.000610352
-0.0112915	0
-0.0448608	-0.00366211
-0.055542	-0.00915527
-0.045166	-0.0158691
-0.0146484	-0.0241089
0.0219727	-0.0335693
0.0378418	-0.0436401
0.0234985	-0.0537109
-0.00244141	-0.0656128
-0.0204468	-0.0796509
-0.0106812	-0.0900269
0.0115967	-0.0933838
0.0189209	-0.090332
0.00823975	-0.083313
0.00213623	-0.0741577
0.0131226	-0.0646973
0.0222778	-0.0564575
0.00946045	-0.0491333
-0.0204468	-0.0415039
-0.0411987	-0.0323486
-0.0418091	-0.0241089
-0.00854492	-0.0219727
0.0485229	-0.0262451
0.0958252	-0.0323486
0.100403	-0.0366211
0.0549316	-0.0369263
-0.017395	-0.0338745
-0.0799561	-0.027771
-0.106201	-0.020752
-0.0958252	-0.0125122
-0.0613403	-0.00274658
-0.022583	0.00823975
0.00671387	0.020752
0.0259399	0.0350952
0.0350952	0.0473022
0.0411987	0.0512695
0.0485229	0.0436401
0.0598145	0.032959
0.0686646	0.0262451
0.065918	0.0222778
0.0445557	0.0180054
-0.0131226	0.0128174
-0.0985718	0.00610352
-0.155029	0.00213623
-0.1474	0.00274658
-0.0857544	0.00488281
-0.0170898	0.00732422
0.0256348	0.0119019
0.0524902	0.0210571
0.0759888	0.0296021
0.0808716	0.0317383
0.0558472	0.0289917
0.0100708	0.0241089
-0.0259399	0.0216675
-0.0253296	0.0241089
-0.0012207	0.0283813
0.0131226	0.0311279
0.00823975	0.0308228
-0.00244141	0.027771
-0.0088501	0.0241089
-0.00671387	0.0210571
0.00396729	0.0143433
0.0146484	0.00335693
0.0210571	-0.0100708
0.0228882	-0.0195313
0.0247192	-0.0231934
0.0253296	-0.0268555
0.0183105	-0.0305176
0.00610352	-0.0280762
-0.0170898	-0.0213623
-0.0537109	-0.0125122
-0.0982666	-0.00366211
-0.120544	0.00152588
-0.0939941	0.000305176
-0.0335693	-0.00518799
0.0238037	-0.0131226
0.0549316	-0.0234985
0.071106	-0.0363159
0.0836182	-0.0521851
0.0872803	-0.072937
0.0811768	-0.0909424
0.0686646	-0.093689
0.050354	-0.0799561
0.0228882	-0.0570679
-0.0241089	-0.0341797
-0.0848389	-0.012207
-0.133667	0.0112915
-0.129089	0.0323486
-0.0619507	0.0460815
0.0192261	0.0512695
0.071106	0.0476074
0.0823975	0.038147
0.0793457	0.0241089
0.0708008	0.00671387
0.0396729	-0.0146484
-0.017395	-0.0375366
-0.0793457	-0.0567627
-0.115051	-0.067749
-0.110779	-0.0701904
-0.0866699	-0.0695801
-0.0656128	-0.0686646
-0.0524902	-0.0683594
-0.0286865	-0.0680542
0.0265503	-0.0674438
0.090332	-0.0665283
0.125122	-0.065918
0.113831	-0.0674438
0.072937	-0.0723267
0.0259399	-0.0784302
-0.00854492	-0.0860596
-0.0195313	-0.0952148
-0.00915527	-0.106201
0.00976563	-0.114746
0.0244141	-0.117493
0.0296021	-0.116272
0.0262451	-0.115051
0.0146484	-0.110779
-0.0012207	-0.0946045
-0.015564	-0.0631714
-0.0131226	-0.0186157
0.00488281	0.0384521
0.0274658	0.108337
0.0427246	0.191345
0.038147	0.28656
-0.00183105	0.390015
-0.0637817	0.494995
-0.122681	0.595703
-0.153503	0.687256
-0.151062	0.757446
-0.132751	0.793152
-0.111389	0.7901
-0.0845337	0.749512
-0.0363159	0.675659
0.043335	0.57373
0.127258	0.445557
0.193481	0.300598
0.225525	0.15625
0.202942	0.0256348
0.137634	-0.083313
0.0820923	-0.16571
-0.00671387	-0.220032
-0.124207	-0.247192
-0.198059	-0.252075
-0.172424	-0.243835
-0.12146	-0.22644
-0.163574	-0.205078
-0.273743	-0.182495
-0.291443	-0.159912
-0.0946045	-0.140381
0.25116	-0.126953
0.568542	-0.121155
0.73761	-0.119629
0.758972	-0.116882
0.655823	-0.109558
0.392456	-0.0991821
-0.0354004	-0.0927734
-0.498352	-0.0933838
-0.799561	-0.0933838
-0.854187	-0.088501
-0.733948	-0.0827026
-0.557556	-0.0772095
-0.402222	-0.0744629
-0.273743	-0.0759888
-0.113831	-0.0750732
0.124512	-0.0650024
0.426025	-0.0473022
0.682068	-0.0274658
0.775757	-0.0137329
0.649109	-0.00823975
0.346069	-0.0109863
-0.0177002	-0.0167847
-0.327454	-0.0198364
-0.519409	-0.0201416
-0.570068	-0.0247192
-0.484619	-0.0366211
-0.274048	-0.050354
0.0119019	-0.0595093
0.284119	-0.06073
0.451965	-0.0552368
0.47821	-0.0463867
0.383606	-0.0341797
0.222168	-0.0189209
0.0570679	-0.00244141
-0.0689697	0.012207
-0.144348	0.0210571
-0.162659	0.0216675
-0.126953	0.0158691
-0.0570679	0.00610352
0.020752	-0.00671387
0.0765991	-0.0204468
0.100098	-0.0302124
0.0878906	-0.0338745
0.038147	-0.0338745
-0.0335693	-0.0308228
-0.101929	-0.022583
-0.150146	-0.0134277
-0.172729	-0.0100708
-0.171814	-0.0128174
-0.148621	-0.0180054
-0.111084	-0.0262451
-0.0732422	-0.0350952
-0.0482178	-0.0378418
-0.0305176	-0.0405884
0.000305176	-0.0448608
0.0317383	-0.0445557
0.0415039	-0.0366211
0.0289917	-0.0231934
0.0219727	-0.0100708
0.0405884	-0.00152588
0.0790405	0
0.120544	-0.00335693
0.144043	-0.00579834
0.119324	-0.00488281
0.067749	-0.00335693
0.0222778	-0.00854492
-0.00518799	-0.0192261
-0.0292969	-0.0286865
-0.0546265	-0.0314331
-0.0698853	-0.0222778
-0.0775146	-0.00457764
-0.0704956	0.0119019
-0.0531006	0.0222778
-0.0424194	0.0286865
-0.0405884	0.0363159
-0.0296021	0.0460815
0.0115967	0.0534058
0.0735474	0.0558472
0.13092	0.0534058
0.150146	0.0494385
0.125427	0.0479126
0.0701904	0.0497437
0.00335693	0.0537109
-0.0537109	0.0595093
-0.0686646	0.0662231
-0.0546265	0.0769043
-0.0442505	0.0906372
-0.0683594	0.104065
-0.0866699	0.120544
-0.085144	0.137939
-0.0518799	0.149536
-0.0198364	0.157166
0.0216675	0.164185
0.0598145	0.168762
0.0958252	0.167847
0.105591	0.160828
0.0875854	0.149841
0.093689	0.138855
0.0894165	0.133057
0.00640869	0.134277
-0.145264	0.138855
-0.253906	0.143127
-0.233154	0.146179
-0.123596	0.149841
0.0274658	0.15625
0.148621	0.1651
0.192566	0.174561
0.134583	0.184021
0.0164795	0.188293
-0.085144	0.184631
-0.12085	0.176086
-0.0872803	0.167542
-0.0296021	0.158997
0.0134277	0.147095
0.0595093	0.137939
0.027771	0.135193
-0.065918	0.138855
-0.12207	0.148621
-0.0756836	0.160522
0.00976563	0.170288
0.0967407	0.174866
0.186768	0.169067
0.404358	0.153809
0.542603	0.138245
0.311584	0.121155
-0.237122	0.0958252
-0.81604	0.0646973
-0.890808	0.0283813
-0.504761	-0.00915527
0.177612	-0.039978
0.653076	-0.0579834
0.717468	-0.0598145
0.477905	-0.050354
0.134888	-0.038147
-0.21759	-0.0259399
-0.465698	-0.0134277
-0.101624	-0.00305176
0.561218	0.00213623
0.315857	0.00457764
-0.694885	0.00457764
-1.42517	0
-0.996094	-0.0106812
-0.0964355	-0.027771
0.559387	-0.0424194
0.737915	-0.0421143
0.76355	-0.03479
0.776367	-0.0256348
0.701599	-0.0161743
0.536499	-0.00518799
0.000305176	0.00518799
-0.527039	0.00976563
-0.812988	0.00793457
-0.736694	0.00305176
-0.541687	-0.00427246
-0.348206	-0.015564
-0.0769043	-0.0302124
0.195923	-0.039978
0.392761	-0.0384521
0.443726	-0.0262451
0.39032	-0.0106812
0.215454	-0.00305176
0.0109863	-0.00488281
-0.154724	-0.00549316
-0.241394	-0.00549316
-0.256653	-0.0115967
-0.239258	-0.020752
-0.159607	-0.0317383
-0.0158691	-0.045166
0.111084	-0.0561523
0.211487	-0.0576782
0.224609	-0.0518799
0.180969	-0.0436401
0.0866699	-0.0341797
-0.0146484	-0.0222778
-0.0683594	-0.0115967
0.0265503	-0.00640869
0.336609	-0.00946045
0.535583	-0.0204468
-0.168762	-0.0341797
-0.422363	-0.045166
1.45233	-0.0537109
2.33459	-0.0567627
0.74707	-0.0527954
-3.37616	-0.0454712
-6.17828	-0.0363159
-5.27161	-0.0256348
-1.06171	-0.0149536
3.21503	-0.00396729
5.25696	0.00305176
4.95087	0.000305176
3.22723	-0.0125122
1.19049	-0.0335693
-0.662231	-0.0543213
-1.79535	-0.067749
-2.02667	-0.0769043
-1.59912	-0.0854492
-0.969543	-0.0949097
-0.458679	-0.101013
-0.254211	-0.0906372
-0.216675	-0.0631714
-0.158386	-0.0292969
-0.0088501	0.000610352
0.134583	0.0234985
0.176392	0.039978
0.117188	0.0497437
0.0439453	0.0543213
0.0576782	0.0540161
0.141907	0.0494385
0.231934	0.0402832
0.255432	0.0241089
0.213928	0.00457764
0.151367	-0.0143433
0.102844	-0.0292969
0.0662231	-0.0390625
0.0204468	-0.0445557
-0.0485229	-0.0463867
-0.116882	-0.0479126
-0.157776	-0.0558472
-0.140381	-0.0674438
-0.0991821	-0.0680542
-0.0631714	-0.0582886
-0.0457764	-0.050354
-0.00518799	-0.0457764
0.0454712	-0.0402832
0.0991821	-0.0350952
0.105591	-0.0335693
0.0732422	-0.0280762
0.017395	-0.0134277
-0.0469971	-0.000915527
-0.100403	0.00396729
-0.139771	0.00213623
-0.13916	-0.00244141
-0.128784	-0.00640869
-0.0949097	-0.0152588
-0.0552368	-0.0314331
0.00640869	-0.0460815
0.0708008	-0.0524902
0.114746	-0.0567627
0.13092	-0.0582886
0.107422	-0.0521851
0.072937	-0.0421143
0.0759888	-0.0341797
0.0518799	-0.0283813
0.0283813	-0.0222778
-0.038147	-0.0128174
-0.127869	-0.000610352
-0.181885	0.00854492
-0.0753784	0.0146484
0.124512	0.0164795
0.289001	0.0100708
0.26062	-0.00152588
0.112	-0.0112915
-0.0436401	-0.017395
-0.137634	-0.0210571
-0.144958	-0.0238037
0.117798	-0.0222778
0.233154	-0.0192261
-0.0622559	-0.020752
-0.414734	-0.0314331
-0.473938	-0.0485229
-0.278625	-0.0588989
-0.20874	-0.0576782
-0.172119	-0.0518799
0.0653076	-0.0488281
0.430298	-0.0466919
0.634155	-0.0424194
0.502625	-0.0384521
0.217285	-0.0372314
-0.0305176	-0.039978
-0.164185	-0.0442505
-0.194397	-0.0476074
-0.171814	-0.0500488
0.179138	-0.0546265
0.0253296	-0.0552368
-0.469666	-0.0448608
-0.66925	-0.0308228
-0.222473	-0.022583
0.357666	-0.0183105
0.463257	-0.0131226
0.3302	-0.00579834
0.101013	0.00488281
-0.00396729	0.0137329
0.0100708	0.0146484
0.231323	0.00823975
0.340576	-0.00549316
0.141296	-0.020752
-0.287476	-0.0320435
-0.666809	-0.0372314
-0.762634	-0.0344849
-0.556335	-0.0244141
-0.173645	-0.00762939
0.172119	0.00213623
0.344543	-0.00335693
0.294189	-0.0180054
0.184937	-0.0320435
0.259399	-0.0430298
0.366516	-0.0549316
0.260925	-0.0683594
-0.0494385	-0.0845337
-0.247803	-0.101013
-0.135498	-0.112305
0.209961	-0.119324
0.517273	-0.121155
0.493774	-0.113525
0.112305	-0.0994873
-0.394592	-0.0845337
-0.704041	-0.0775146
-0.691528	-0.0796509
-0.448303	-0.0839233
-0.171814	-0.0857544
0.0482178	-0.0866699
0.301514	-0.0927734
0.480347	-0.103149
0.45166	-0.104675
0.160217	-0.0946045
-0.269775	-0.0784302
-0.723572	-0.057373
-0.768738	-0.0317383
-0.0146484	-0.00579834
0.896301	0.0167847
1.22559	0.0326538
0.736694	0.0378418
-0.0140381	0.0360107
-0.542908	0.0256348
-0.733948	0.00549316
-0.749512	-0.0164795
-0.693054	-0.0375366
-0.335388	-0.0558472
0.291748	-0.0726318
0.9729	-0.0854492
1.20911	-0.0927734
1.04919	-0.093689
0.374146	-0.0869751
-0.653076	-0.0741577
-1.42365	-0.0595093
-1.5036	-0.0485229
-0.884399	-0.045166
-0.137329	-0.0491333
0.326538	-0.057373
0.407715	-0.0646973
0.538025	-0.0744629
0.857544	-0.0964355
1.11053	-0.118713
0.933533	-0.125427
0.329285	-0.122986
-0.353088	-0.119934
-0.785522	-0.115356
-0.855408	-0.104675
-0.668335	-0.0878906
-0.36438	-0.0717163
-0.0454712	-0.057373
0.183411	-0.0430298
0.367126	-0.0341797
0.43396	-0.0350952
0.271912	-0.045166
0.100098	-0.0579834
0.0488281	-0.0674438
-0.0491333	-0.0717163
-0.297241	-0.0698853
-0.522766	-0.0643921
-0.599976	-0.0653076
-0.447388	-0.0808716
-0.0384521	-0.0918579
0.486145	-0.0820923
0.832214	-0.0643921
0.769958	-0.0518799
0.421448	-0.0537109
0.272217	-0.0680542
0.105286	-0.0793457
-0.411377	-0.0784302
-1.13251	-0.0671387
-1.2912	-0.0518799
-0.664368	-0.038147
0.205994	-0.0299072
0.760498	-0.0244141
0.787048	-0.0210571
0.566101	-0.0195313
0.282288	-0.0219727
-0.020752	-0.0308228
-0.337524	-0.039978
-0.618591	-0.0488281
-0.627747	-0.0601196
-0.155029	-0.0726318
0.51178	-0.083313
0.943604	-0.090332
0.827026	-0.0976563
0.325928	-0.109253
-0.12146	-0.12207
-0.324402	-0.129395
-0.419617	-0.130615
-0.4953	-0.1297
-0.492249	-0.129395
-0.360107	-0.135498
-0.179443	-0.142822
-0.0216675	-0.144958
0.126343	-0.144653
0.180969	-0.140381
0.38208	-0.132446
0.57312	-0.126648
0.601501	-0.122986
0.344238	-0.122986
-0.0421143	-0.128174
-0.305481	-0.136108
-0.317688	-0.14679
-0.203857	-0.158691
-0.136719	-0.164185
-0.166626	-0.162354
-0.215759	-0.161133
-0.267639	-0.161743
-0.430908	-0.163269
-0.371704	-0.166016
0.0979614	-0.167542
0.684204	-0.166931
0.903625	-0.1651
0.597534	-0.164185
0.0521851	-0.164185
-0.362244	-0.166626
-0.548401	-0.170288
-0.61615	-0.173645
-0.700073	-0.171509
-0.435791	-0.165405
0.162048	-0.161743
0.687866	-0.159912
0.750122	-0.158081
0.411072	-0.157166
-0.000915527	-0.160217
-0.254822	-0.169678
-0.303345	-0.180969
-0.211792	-0.188293
-0.118408	-0.193787
-0.207214	-0.199585
-0.290833	-0.209351
0.0564575	-0.222778
0.59021	-0.233459
0.853271	-0.239258
0.597534	-0.243225
0.119629	-0.246887
-0.312805	-0.246582
-0.54657	-0.236816
-0.535583	-0.220642
-0.297852	-0.197449
-0.0088501	-0.166931
0.199585	-0.128479
0.260925	-0.0802612
0.247192	-0.0238037
0.183105	0.0418091
0.0921631	0.121155
0.00762939	0.207825
-0.0756836	0.296326
-0.154114	0.38147
-0.248108	0.463257
-0.359192	0.540161
-0.503845	0.600281
-0.258789	0.628052
0.202942	0.619202
0.516968	0.577698
0.379028	0.509033
-0.0411987	0.418396
-0.358582	0.306702
-0.345764	0.176392
-0.128174	0.0354004
0.0927734	-0.0991821
0.20874	-0.210571
0.227051	-0.291443
0.178528	-0.342712
0.0439453	-0.371704
-0.124512	-0.383911
-0.194092	-0.379639
-0.127258	-0.361328
-0.0250244	-0.331726
-0.0360107	-0.299072
-0.141296	-0.268555
-0.219421	-0.241699
-0.140991	-0.219727
0.0881958	-0.204773
0.40863	-0.198975
0.739441	-0.200806
1.0083	-0.201111
1.0791	-0.195007
0.845337	-0.185547
0.300293	-0.176392
-0.374756	-0.169373
-0.924377	-0.161133
-1.19171	-0.14679
-1.20026	-0.126953
-1.06323	-0.108337
-0.868835	-0.0958252
-0.586243	-0.0857544
-0.144043	-0.0756836
0.352173	-0.0698853
0.777588	-0.067749
0.997314	-0.0668335
0.970459	-0.0674438
0.707703	-0.071106
0.333557	-0.0802612
-0.0146484	-0.0924683
-0.284729	-0.0982666
-0.493469	-0.0985718
-0.602112	-0.0961304
-0.571594	-0.0930786
-0.39917	-0.0921631
-0.144653	-0.0933838
0.124817	-0.093689
0.317993	-0.0900269
0.405579	-0.0842285
0.394287	-0.0793457
0.325012	-0.0778198
0.229187	-0.0802612
0.112	-0.0845337
-0.010376	-0.0878906
-0.0930786	-0.0906372
-0.093689	-0.0924683
-0.0570679	-0.0942993
-0.0253296	-0.098877
0.0213623	-0.101013
0.0772095	-0.0985718
0.114136	-0.0939941
0.0704956	-0.0915527
-0.0250244	-0.0872803
-0.123596	-0.0790405
-0.166931	-0.0680542
-0.169983	-0.0564575
-0.174255	-0.043335
-0.174866	-0.0289917
-0.162048	-0.0170898
-0.131531	-0.00976563
-0.120239	-0.00305176
-0.110779	0.00366211
-0.0909424	0.00732422
-0.032959	0.00427246
0.0543213	-0.00549316
0.124207	-0.0170898
0.167236	-0.0256348
0.162048	-0.032959
0.146179	-0.0405884
0.12146	-0.050354
0.0930786	-0.0598145
0.0515747	-0.0646973
-0.000610352	-0.0619507
-0.0262451	-0.0561523
-0.0366211	-0.0515747
-0.0106812	-0.0485229
0.0231934	-0.0442505
0.0561523	-0.0393677
0.0637817	-0.03479
0.0512695	-0.0302124
0.0527954	-0.0253296
0.062561	-0.0192261
0.0582886	-0.00854492
0.0131226	0.00183105
-0.0756836	0.0128174
-0.160522	0.0265503
-0.213623	0.0363159
-0.2005	0.0372314
-0.143738	0.0393677
-0.0924683	0.0506592
-0.0241089	0.0634766
0.090332	0.0714111
0.218506	0.0744629
0.26001	0.0747681
0.194702	0.0750732
0.0531006	0.0769043
-0.0994873	0.0836182
-0.221558	0.0921631
-0.285339	0.0961304
-0.222473	0.0976563
-0.0244141	0.0979614
0.207214	0.0982666
0.33783	0.0994873
0.325012	0.102234
0.213013	0.105591
0.0643921	0.110779
-0.0759888	0.120544
-0.2005	0.133057
-0.274963	0.145569
-0.292969	0.155945
-0.23407	0.16449
-0.124817	0.172119
-0.0280762	0.180359
0.0439453	0.187073
0.0854492	0.186462
0.118103	0.176392
0.137634	0.162354
0.12207	0.148621
0.0881958	0.134277
0.0241089	0.116882
-0.0250244	0.0958252
-0.0442505	0.0759888
-0.0271606	0.0601196
0.0140381	0.0466919
0.0454712	0.0350952
0.0653076	0.0314331
0.0494385	0.032959
0.0198364	0.0354004
-0.00396729	0.0378418
-0.0140381	0.0408936
-0.0143433	0.0421143
-0.0271606	0.039978
-0.0170898	0.0354004
0.000610352	0.0296021
0.0170898	0.0228882
0.0183105	0.0128174
0.00610352	0.000915527
0.00793457	-0.00762939
0.0164795	-0.0152588
0.038147	-0.0253296
0.0500488	-0.0323486
0.0320435	-0.0323486
-0.000610352	-0.027771
-0.0500488	-0.0241089
-0.101318	-0.0228882
-0.138855	-0.0222778
-0.134583	-0.0183105
-0.0845337	-0.00854492
-0.0268555	0.00305176
0.00671387	0.010376
0.0177002	0.0125122
0.0415039	0.0128174
0.0866699	0.015564
0.108948	0.0189209
0.0942993	0.0167847
0.050354	0.00579834
0.00488281	-0.0100708
-0.0415039	-0.0231934
-0.09552	-0.0326538
-0.172119	-0.0430298
-0.264587	-0.0527954
-0.332642	-0.06073
-0.264282	-0.0692749
-0.00762939	-0.078125
0.379944	-0.0872803
0.739136	-0.0924683
0.843506	-0.0939941
0.566101	-0.0970459
0.055542	-0.0973511
-0.376282	-0.0930786
-0.575867	-0.0888062
-0.539551	-0.0860596
-0.388184	-0.0839233
-0.223999	-0.078125
-0.123291	-0.0668335
-0.0827026	-0.0506592
-0.0466919	-0.0326538
0.0335693	-0.0170898
0.166931	-0.0115967
0.291748	-0.0152588
0.349426	-0.020752
0.313416	-0.0241089
0.192566	-0.0253296
0.0424194	-0.0271606
-0.083313	-0.0299072
-0.156555	-0.0326538
-0.175781	-0.0344849
-0.151062	-0.0335693
-0.0869751	-0.0305176
-0.0140381	-0.0241089
0.0488281	-0.0115967
0.0973511	0.00335693
0.116577	0.0152588
0.0811768	0.0204468
-0.000305176	0.0192261
-0.0778198	0.0146484
-0.125427	0.0109863
-0.144348	0.00946045
-0.144653	0.00640869
-0.136719	-0.00457764
-0.10498	-0.0198364
-0.0567627	-0.0283813
-0.00457764	-0.0292969
0.0335693	-0.027771
0.0628662	-0.0259399
0.0994873	-0.0228882
0.144958	-0.017395
0.166321	-0.0088501
0.152283	0
0.124817	0.00701904
0.0897217	0.0134277
0.0546265	0.0183105
0.0183105	0.0201416
-0.015564	0.0180054
-0.0479126	0.0119019
-0.0686646	-0.000305176
-0.0665283	-0.0183105
-0.0375366	-0.0354004
-0.00396729	-0.0466919
0.00946045	-0.0531006
-0.00610352	-0.0567627
-0.0289917	-0.06073
-0.038147	-0.0610352
-0.0411987	-0.0552368
-0.0485229	-0.0439453
-0.0491333	-0.0292969
-0.0375366	-0.0140381
-0.0427246	-0.00152588
-0.0564575	0.00366211
-0.0689697	0.00366211
-0.0375366	0.00183105
0.00854492	0.0012207
0.0289917	0.0012207
0.00854492	0.00213623
-0.0183105	0.00305176
-0.0286865	0.00366211
-0.0119019	0.00488281
0.00183105	0.00671387
0.00427246	0.00762939
0.000305176	0.00671387
-0.00366211	0.00518799
0.00335693	0.00610352
0.00762939	0.00610352
0.0128174	0.00183105
0.0338745	-0.00610352
0.0744629	-0.017395
0.106506	-0.0292969
0.114136	-0.0360107
0.0909424	-0.0390625
0.0540161	-0.0421143
0.015564	-0.0430298
-0.0115967	-0.0411987
-0.0204468	-0.0396729
-0.0177002	-0.0384521
-0.00549316	-0.0366211
0.00183105	-0.0314331
0.000305176	-0.0195313
-0.00701904	-0.00579834
-0.015564	0.00488281
-0.0408936	0.0100708
-0.0653076	0.00701904
-0.0765991	-0.00335693
-0.0656128	-0.0140381
-0.0244141	-0.022583
0.0448608	-0.0286865
0.106201	-0.0335693
0.134277	-0.0375366
0.0906372	-0.038147
0.0146484	-0.0366211
-0.0622559	-0.032959
-0.115356	-0.0256348
-0.137939	-0.0158691
-0.129089	-0.00335693
-0.0769043	0.00671387
-0.012207	0.010376
0.0479126	0.00762939
0.062561	-0.00244141
0.0473022	-0.0167847
0.0167847	-0.0280762
-0.00366211	-0.0332642
-0.00701904	-0.0350952
-0.0189209	-0.0369263
-0.0466919	-0.0344849
-0.0839233	-0.027771
-0.0799561	-0.0192261
-0.0436401	-0.0119019
0.0250244	-0.00640869
0.0906372	-0.00274658
0.116272	0.00183105
0.10498	0.00610352
0.0836182	0.00762939
0.078125	0.00335693
0.0546265	-0.00488281
-0.015564	-0.0152588
-0.107422	-0.0262451
-0.162354	-0.0350952
-0.144348	-0.0387573
-0.0689697	-0.0357056
0.0186157	-0.0305176
0.0827026	-0.0265503
0.108948	-0.0201416
0.101318	-0.0119019
0.0585938	-0.00549316
0.00427246	-0.00213623
-0.0286865	-0.00213623
-0.0280762	-0.00396729
-0.0131226	-0.00457764
-0.00396729	-0.00854492
-0.000305176	-0.0177002
0.00610352	-0.0292969
0.0253296	-0.0411987
0.0509644	-0.0479126
0.071106	-0.0500488
0.0769043	-0.0527954
0.067749	-0.0546265
0.0500488	-0.0518799
0.0308228	-0.0466919
-0.00640869	-0.0405884
-0.0570679	-0.0344849
-0.110779	-0.0280762
-0.140991	-0.0198364
-0.151978	-0.010376
-0.156555	-0.00244141
-0.143433	0
-0.0967407	-0.00549316
-0.0186157	-0.010376
0.0402832	-0.0088501
0.0735474	-0.00244141
0.0814819	0.00274658
0.0888062	0.00518799
0.0820923	0.00457764
0.0613403	0.00305176
0.0338745	0.00610352
0.00915527	0.0134277
-0.00854492	0.0210571
-0.0280762	0.0250244
-0.0344849	0.0244141
-0.0436401	0.0186157
-0.0311279	0.00854492
-0.0280762	-0.00305176
-0.0100708	-0.0125122
0.00366211	-0.0189209
0.03479	-0.020752
0.0598145	-0.0189209
0.0814819	-0.0167847
0.0820923	-0.0164795
0.0564575	-0.0143433
0.022583	-0.00610352
-0.0161743	0.00366211
-0.0421143	0.0100708
-0.0515747	0.0140381
-0.0210571	0.0192261
0.0280762	0.0231934
0.0668335	0.0198364
0.0448608	0.00946045
-0.00274658	-0.00305176
-0.0436401	-0.0149536
-0.0378418	-0.0265503
-0.0222778	-0.0335693
-0.00183105	-0.0366211
0.00335693	-0.0436401
0.0158691	-0.0534058
0.00976563	-0.0570679
-0.0228882	-0.0509644
-0.0701904	-0.0396729
-0.0967407	-0.0244141
-0.0906372	-0.00366211
-0.0515747	0.0189209
0.00427246	0.0366211
0.0457764	0.0460815
0.0570679	0.0540161
0.0457764	0.0628662
0.0250244	0.067749
0.00335693	0.0686646
-0.0125122	0.0668335
-0.0143433	0.0650024
0.00335693	0.0637817
0.0109863	0.06073
0.0115967	0.0592041
0.0125122	0.06073
0.0213623	0.0692749
0.0201416	0.0793457
0.124817	0.0830078
0.435486	0.0799561
0.601501	0.0753784
-0.00305176	0.0723267
-0.979614	0.0683594
-1.47064	0.06073
-1.00952	0.0524902
-0.0543213	0.045166
0.730286	0.0375366
1.02783	0.0289917
0.948486	0.0228882
0.65979	0.0198364
0.323486	0.0192261
-0.000610352	0.0204468
-0.224915	0.0234985
-0.349731	0.0268555
-0.348511	0.0289917
-0.280457	0.0305176
-0.189514	0.0335693
-0.106506	0.0360107
-0.0360107	0.0363159
0.0268555	0.0360107
0.0634766	0.0375366
0.0640869	0.0375366
0.0390625	0.0323486
0.0109863	0.022583
-0.0131226	0.0125122
-0.0421143	0.00335693
-0.0683594	-0.00518799
-0.0753784	-0.0146484
-0.0479126	-0.027771
0.00762939	-0.043335
0.0662231	-0.0534058
0.0805664	-0.0524902
0.0402832	-0.043335
-0.0228882	-0.0305176
-0.0585938	-0.0170898
-0.0430298	-0.00732422
0.00610352	0.000610352
0.0442505	0.00854492
0.0415039	0.0167847
0.0143433	0.0247192
0.0164795	0.0305176
0.043335	0.0289917
0.0488281	0.0170898
-0.00732422	0
-0.0823975	-0.017395
-0.0765991	-0.0308228
-0.0238037	-0.0372314
0.0201416	-0.0396729
0.0296021	-0.0430298
0.0378418	-0.0500488
0.0280762	-0.0582886
-0.00610352	-0.0628662
-0.039978	-0.0610352
-0.0292969	-0.0546265
0.015564	-0.0466919
0.0479126	-0.0405884
0.088501	-0.0375366
0.223389	-0.03479
0.218811	-0.0326538
-0.12146	-0.0369263
-0.493164	-0.0463867
-0.540771	-0.0549316
-0.202332	-0.0598145
0.20874	-0.0637817
0.428772	-0.0708008
0.428467	-0.0823975
0.290527	-0.0881958
0.136108	-0.0762939
0.0143433	-0.0445557
-0.0726318	-0.000610352
-0.120239	0.050354
-0.135498	0.110474
-0.103149	0.187378
-0.0631714	0.280151
-0.0164795	0.379639
0.00946045	0.478821
0.00183105	0.57312
-0.0518799	0.653687
-0.135498	0.713501
-0.193787	0.745544
-0.218506	0.743408
-0.209351	0.704346
-0.180664	0.63446
-0.116272	0.543823
-0.0231934	0.436707
0.0778198	0.315247
0.184631	0.189819
0.262146	0.0732422
0.299988	-0.0268555
0.270996	-0.107117
0.298462	-0.167236
0.379028	-0.205078
0.111084	-0.223083
-0.359497	-0.22583
-0.715027	-0.218201
-0.648499	-0.203247
-0.33783	-0.184631
-0.0665283	-0.16571
0.0805664	-0.14679
0.180359	-0.127869
0.336609	-0.108337
0.541992	-0.0906372
0.735779	-0.0759888
0.813904	-0.0650024
0.700989	-0.0564575
0.368958	-0.0473022
-0.0875854	-0.0369263
-0.519104	-0.0299072
-0.772095	-0.027771
-0.784912	-0.027771
-0.629883	-0.0311279
-0.456238	-0.0375366
-0.361328	-0.0411987
-0.312195	-0.0405884
-0.214233	-0.0421143
-0.00823975	-0.0500488
0.271301	-0.057373
0.515747	-0.06073
0.643311	-0.0631714
0.611267	-0.0598145
0.428162	-0.0460815
0.133972	-0.0296021
-0.205078	-0.0152588
-0.50293	-0.00366211
-0.679016	0.00579834
-0.675354	0.0131226
-0.483398	0.0170898
-0.15625	0.0192261
0.202026	0.0198364
0.479736	0.0192261
0.609436	0.015564
0.588684	0.00610352
0.462341	-0.00549316
0.270081	-0.0125122
0.0439453	-0.0137329
-0.16449	-0.0106812
-0.285645	-0.00671387
-0.185852	-0.0012207
0.264587	0.00640869
0.368347	0.0140381
-0.0653076	0.0189209
-0.617981	0.0195313
-0.739441	0.0167847
-0.352783	0.0125122
0.0805664	0.00457764
0.317078	-0.00701904
0.369873	-0.0210571
0.299988	-0.0354004
0.153809	-0.0482178
-0.045166	-0.055542
-0.206604	-0.055542
-0.268555	-0.0500488
-0.245056	-0.0442505
-0.171204	-0.0393677
-0.0720215	-0.0323486
0.03479	-0.0216675
0.131531	-0.0119019
0.198059	-0.00518799
0.231628	0.00274658
0.209351	0.0115967
0.131836	0.0170898
0.0216675	0.0180054
-0.0601196	0.0164795
-0.0830078	0.0161743
-0.0714111	0.0170898
-0.0610352	0.0161743
-0.0692749	0.0119019
-0.0674438	0.0112915
-0.0320435	0.0152588
0.0186157	0.0213623
0.0396729	0.0286865
0.00701904	0.0369263
-0.0558472	0.0457764
-0.10376	0.0543213
-0.105591	0.0646973
-0.0619507	0.0750732
0.000915527	0.0842285
0.0506592	0.0906372
0.0628662	0.0900269
0.0421143	0.0808716
0.00671387	0.0708008
-0.0189209	0.0683594
-0.0384521	0.0723267
-0.0546265	0.0796509
-0.0524902	0.088501
-0.020752	0.0976563
0.0341797	0.104675
0.0836182	0.110474
0.115051	0.117493
0.124817	0.123291
0.149231	0.124512
0.163574	0.122681
0.0836182	0.119629
-0.0494385	0.117798
-0.158997	0.115356
-0.143433	0.113831
-0.0436401	0.114746
0.0527954	0.120544
0.0894165	0.13092
0.0762939	0.140991
0.043335	0.1474
-0.010376	0.150757
-0.0698853	0.154724
-0.102844	0.162964
-0.0964355	0.174561
-0.0747681	0.184021
-0.055542	0.186157
-0.0363159	0.180969
-0.000610352	0.172729
0.0494385	0.169678
0.0814819	0.171204
0.062561	0.170593
0.00152588	0.161133
-0.0576782	0.143127
-0.0836182	0.128479
-0.0769043	0.120544
-0.0604248	0.117798
-0.0427246	0.118408
-0.0219727	0.119019
0	0.117798
0.0204468	0.114746
0.0292969	0.110474
0.0311279	0.10498
0.0296021	0.0976563
0.0366211	0.0881958
0.0521851	0.0750732
0.0662231	0.0588989
0.0582886	0.039978
0.038147	0.0250244
0.0158691	0.0183105
0.0100708	0.017395
0.0146484	0.0183105
0.0180054	0.0192261
0.012207	0.0180054
0.00244141	0.0140381
-0.00946045	0.00671387
-0.0161743	-0.0012207
-0.00762939	-0.00762939
0.0201416	-0.0149536
0.0485229	-0.0253296
0.0482178	-0.0344849
0.00762939	-0.039978
-0.0442505	-0.0418091
-0.0686646	-0.043335
-0.0631714	-0.0473022
-0.0314331	-0.0524902
0.0146484	-0.0518799
0.0439453	-0.0454712
0.0247192	-0.0396729
-0.039978	-0.0354004
-0.109253	-0.0292969
-0.163269	-0.0210571
-0.203247	-0.0131226
-0.270996	-0.00488281
-0.328369	0.00244141
-0.246582	0.00701904
0.0534058	0.00946045
0.496521	0.00732422
0.848389	0
0.870667	-0.012207
0.520935	-0.0265503
0.015564	-0.0411987
-0.386963	-0.0534058
-0.566711	-0.0595093
-0.585632	-0.0613403
-0.540771	-0.0595093
-0.465393	-0.0531006
-0.341492	-0.045166
-0.160522	-0.0393677
0.0479126	-0.0366211
0.273743	-0.0317383
0.45105	-0.0231934
0.531616	-0.0137329
0.470276	-0.00457764
0.302734	0.00183105
0.0982666	0.00396729
-0.0765991	0.000915527
-0.169373	-0.00549316
-0.174255	-0.0149536
-0.0970459	-0.0262451
-0.0143433	-0.0396729
0.0546265	-0.0534058
0.0994873	-0.062561
0.13092	-0.0656128
0.116577	-0.0613403
0.0408936	-0.050354
-0.06073	-0.038147
-0.142517	-0.0253296
-0.152893	-0.012207
-0.138855	-0.000305176
-0.126343	0.00854492
-0.136719	0.0140381
-0.143127	0.0180054
-0.126953	0.0180054
-0.0869751	0.0109863
-0.0183105	-0.00213623
0.0506592	-0.0170898
0.110474	-0.0292969
0.141296	-0.0338745
0.159607	-0.0344849
0.147705	-0.03479
0.0952148	-0.0372314
0.0268555	-0.0393677
-0.0479126	-0.0344849
-0.0967407	-0.0216675
-0.134888	-0.00701904
-0.14679	0.00488281
-0.139465	0.0146484
-0.0949097	0.0262451
-0.0109863	0.038147
0.0701904	0.0454712
0.116577	0.0463867
0.0979614	0.0424194
0.0634766	0.0338745
0.0360107	0.0234985
0.0320435	0.0128174
0.0405884	0.00305176
0.0357056	-0.00335693
0.0247192	-0.00549316
0.00579834	-0.00610352
0.00396729	-0.00732422
0.00823975	-0.00762939
0.0222778	-0.00396729
0.0341797	-0.000305176
0.0354004	-0.00518799
0.039978	-0.0213623
0.0393677	-0.0387573
0.0311279	-0.0509644
-0.00915527	-0.0564575
-0.0674438	-0.0582886
-0.0839233	-0.0631714
-0.0549316	-0.0701904
-0.0112915	-0.0708008
-0.0119019	-0.0637817
-0.0338745	-0.0540161
-0.0323486	-0.0415039
-0.012207	-0.0256348
-0.0088501	-0.00915527
-0.0354004	0.00427246
-0.0604248	0.0137329
-0.0613403	0.0170898
-0.0454712	0.015564
-0.0247192	0.010376
-0.0137329	0.00671387
-0.00244141	0.00488281
0.022583	0.00305176
0.0469971	-0.00244141
0.0482178	-0.00793457
0.0164795	-0.0088501
-0.0213623	-0.00701904
-0.0418091	-0.00366211
-0.0354004	0.000610352
-0.0170898	0.00518799
0.00274658	0.00701904
0.0332642	0.00366211
0.0527954	-0.00244141
0.0543213	-0.00793457
0.0360107	-0.0134277
0.0167847	-0.0183105
0.0143433	-0.022583
0.0274658	-0.0247192
0.0527954	-0.0250244
0.0823975	-0.0234985
0.0939941	-0.0210571
0.0793457	-0.0186157
0.0357056	-0.0158691
-0.00915527	-0.0131226
-0.0384521	-0.012207
-0.0180054	-0.0177002
0.163269	-0.0256348
0.364075	-0.0317383
0.0869751	-0.0408936
-0.491638	-0.0521851
-0.838928	-0.0628662
-0.606995	-0.0717163
-0.0436401	-0.0735474
0.390015	-0.0692749
0.533447	-0.0646973
0.473938	-0.0592041
0.344238	-0.0543213
0.19043	-0.0521851
0.0213623	-0.0476074
-0.140076	-0.0354004
-0.263977	-0.017395
-0.324707	0.0012207
-0.301208	0.0158691
-0.20813	0.0268555
-0.0906372	0.03479
-0.00579834	0.0411987
0.0164795	0.0436401
-0.00793457	0.0408936
-0.0265503	0.0366211
-0.0189209	0.0317383
-0.0012207	0.0250244
0.0164795	0.0170898
0.0354004	0.00610352
0.0610352	-0.00823975
0.0799561	-0.0204468
0.0817871	-0.027771
0.0701904	-0.0311279
0.0665283	-0.0296021
0.0753784	-0.0253296
0.0616455	-0.0216675
0.0149536	-0.0198364
-0.0253296	-0.0195313
-0.0216675	-0.017395
-0.0164795	-0.0146484
-0.0299072	-0.0131226
-0.00152588	-0.0137329
0.0360107	-0.0152588
0.0360107	-0.0177002
0.0253296	-0.0234985
0.0317383	-0.0314331
0.0372314	-0.0360107
0.027771	-0.0350952
0.0125122	-0.0302124
-0.000305176	-0.0247192
-0.00762939	-0.0183105
-0.00396729	-0.0100708
0.0128174	-0.000915527
0.0390625	0.00549316
0.057373	0.00732422
0.045166	0.00518799
0.00823975	0.00427246
-0.0140381	0.000305176
-0.0088501	-0.0143433
-0.00274658	-0.0326538
-0.0256348	-0.0494385
-0.071106	-0.0598145
-0.117493	-0.0592041
-0.146179	-0.0527954
-0.1651	-0.0448608
-0.172119	-0.0344849
-0.147095	-0.0189209
-0.0765991	0.000915527
0.0231934	0.0201416
0.117798	0.032959
0.163574	0.0384521
0.144043	0.039978
0.0836182	0.039978
0.0238037	0.0369263
-0.00762939	0.0283813
-0.00701904	0.015564
0.00640869	0.00366211
-0.0012207	-0.00396729
-0.0311279	-0.00549316
-0.0442505	-0.00213623
-0.0280762	0.00396729
0	0.0119019
0.0228882	0.0216675
0.0296021	0.0314331
0.0253296	0.0393677
0.0271606	0.0430298
0.0424194	0.0427246
0.0512695	0.0402832
0.0366211	0.0363159
0.0204468	0.0302124
0.0128174	0.0195313
0.0112915	0.00671387
-0.0012207	-0.00366211
-0.020752	-0.010376
-0.0350952	-0.0158691
-0.0308228	-0.0195313
-0.00915527	-0.0192261
0.0195313	-0.0164795
0.0302124	-0.0128174
0.0161743	-0.0109863
-0.000915527	-0.00976563
-0.00457764	-0.000915527
0.00366211	0.0152588
0.0280762	0.0335693
0.0494385	0.0479126
0.0466919	0.0595093
-0.00640869	0.0720215
-0.06073	0.083313
-0.0823975	0.0924683
-0.0732422	0.0970459
-0.0543213	0.0921631
-0.0354004	0.0808716
-0.0253296	0.0701904
-0.015564	0.06073
-0.00427246	0.050354
-0.00335693	0.0372314
-0.0320435	0.0234985
-0.065918	0.0198364
-0.071106	0.0274658
-0.0280762	0.0372314
0.0317383	0.0427246
0.0588989	0.0424194
0.0469971	0.0375366
0.0296021	0.0305176
0.0344849	0.0241089
0.050354	0.0198364
0.0552368	0.0152588
0.0335693	0.00701904
0.00457764	-0.00335693
-0.0158691	-0.0106812
-0.0109863	-0.0100708
-0.00274658	-0.00610352
-0.0128174	-0.00213623
-0.0210571	0
-0.012207	-0.000610352
0.0152588	-0.00579834
0.0460815	-0.0143433
0.0720215	-0.0210571
0.0845337	-0.0250244
0.0683594	-0.0305176
0.0222778	-0.039978
-0.0286865	-0.0473022
-0.0543213	-0.0494385
-0.0582886	-0.0494385
-0.0515747	-0.0518799
-0.0320435	-0.0567627
0.00457764	-0.0616455
0.0418091	-0.062561
0.0427246	-0.06073
0.0183105	-0.0616455
-0.00579834	-0.0640869
-0.0204468	-0.0598145
-0.0366211	-0.0448608
-0.0543213	-0.0259399
-0.0613403	-0.0106812
-0.0592041	0.00244141
-0.038147	0.0134277
-0.015564	0.0189209
-0.00946045	0.0149536
-0.0012207	0.00183105
0.0192261	-0.0164795
0.057373	-0.0335693
0.0762939	-0.0466919
0.0601196	-0.0576782
0.0112915	-0.0637817
-0.0439453	-0.0592041
-0.0811768	-0.0384521
-0.0958252	0
-0.0674438	0.0561523
-0.00976563	0.127869
0.0491333	0.213623
0.083313	0.309143
0.0820923	0.40802
0.0534058	0.50354
0.00793457	0.591736
-0.0332642	0.671997
-0.0680542	0.737
-0.0964355	0.773315
-0.115967	0.77179
-0.108643	0.732117
-0.0567627	0.660095
0.0183105	0.56366
0.0817871	0.449829
0.110474	0.323486
0.126038	0.192566
0.137939	0.067749
0.139771	-0.0439453
0.101013	-0.137024
0.0424194	-0.204163
0.0405884	-0.24292
0.00762939	-0.253601
-0.116272	-0.244141
-0.243225	-0.223999
-0.244751	-0.201416
-0.149841	-0.178528
-0.121155	-0.157166
-0.187378	-0.136719
-0.224304	-0.116882
-0.104065	-0.0982666
0.172729	-0.0814819
0.514526	-0.067749
0.830994	-0.057373
1.03149	-0.0479126
1.01898	-0.0338745
0.689392	-0.0167847
0.0814819	-0.00213623
-0.600586	0.00610352
-1.11237	0.012207
-1.32111	0.0161743
-1.25854	0.0137329
-1.04401	0.00671387
-0.7547	-0.00152588
-0.381165	-0.00823975
0.0973511	-0.0125122
0.621948	-0.0134277
1.03149	-0.0112915
1.1615	-0.00732422
0.987244	-0.000610352
0.591125	0.0088501
0.118103	0.0186157
-0.309143	0.0268555
-0.598145	0.0317383
-0.719604	0.0317383
-0.679932	0.0274658
-0.488281	0.0244141
-0.175476	0.0231934
0.189514	0.0204468
0.491028	0.0180054
0.640564	0.0164795
0.61554	0.0152588
0.44281	0.0152588
0.189514	0.0170898
-0.0582886	0.0195313
-0.222168	0.0204468
-0.270691	0.0164795
-0.227356	0.00671387
-0.131531	-0.00396729
-0.0140381	-0.0128174
0.0799561	-0.0183105
0.116577	-0.0210571
0.0891113	-0.0259399
0.0241089	-0.0317383
-0.0418091	-0.032959
-0.0842285	-0.0265503
-0.101624	-0.0149536
-0.0967407	-0.000305176
-0.0772095	0.0164795
-0.0552368	0.0326538
-0.0747681	0.0469971
-0.131226	0.0558472
-0.174561	0.0601196
-0.15625	0.06073
-0.0888062	0.0613403
-0.00701904	0.062561
0.0521851	0.0592041
0.0646973	0.0485229
0.0576782	0.0354004
0.0476074	0.0280762
0.0537109	0.0259399
0.0704956	0.0195313
0.105896	0.010376
0.134888	0.00823975
0.140991	0.0152588
0.128479	0.0262451
0.10498	0.03479
0.0408936	0.0393677
-0.0689697	0.0415039
-0.165405	0.0454712
-0.183411	0.0540161
-0.105286	0.065918
-0.00457764	0.0772095
0.0531006	0.0869751
0.0436401	0.0942993
-0.00427246	0.100708
-0.0485229	0.105591
-0.0494385	0.108032
-0.00701904	0.106812
0.0402832	0.101929
0.065918	0.0946045
0.06073	0.085144
0.0390625	0.0747681
0.0183105	0.0680542
0.0146484	0.0646973
0.0158691	0.0604248
0.00366211	0.0576782
-0.0210571	0.0601196
-0.0299072	0.0680542
-0.0283813	0.0799561
-0.0192261	0.0930786
-0.00427246	0.108032
0.0259399	0.126953
0.0454712	0.151062
0.032959	0.177002
-0.00854492	0.196533
-0.0405884	0.203857
-0.0445557	0.202637
-0.0268555	0.203247
-0.0192261	0.209656
-0.0195313	0.216064
-0.0134277	0.216064
0.0262451	0.209351
0.0524902	0.202637
0.0296021	0.200195
-0.0442505	0.203552
-0.108643	0.209351
-0.133057	0.215149
-0.10376	0.220032
-0.0424194	0.223999
0.0222778	0.22522
0.0500488	0.224915
0.0454712	0.222168
0.0311279	0.215149
0.0317383	0.203552
0.0439453	0.188904
0.0585938	0.17395
0.0521851	0.161743
0.0326538	0.148926
0.0109863	0.132141
0.00915527	0.114136
0.0222778	0.0973511
0.0521851	0.078125
0.0949097	0.0576782
0.121155	0.0369263
0.101318	0.0180054
0.0253296	0.00488281
-0.0524902	-0.00335693
-0.103455	-0.00823975
-0.111389	-0.0100708
-0.103149	-0.00823975
-0.0830078	-0.00244141
-0.0592041	0.00183105
-0.0228882	0.0012207
0.00427246	-0.00183105
0.0195313	-0.00396729
0.022583	-0.00396729
0.012207	-0.00396729
-0.00518799	-0.00244141
-0.00701904	0.00274658
0.00152588	0.0112915
0.00183105	0.0198364
0	0.0289917
0.00396729	0.0390625
0.00518799	0.0463867
-0.00244141	0.0521851
0	0.0558472
0.00183105	0.0546265
-0.00305176	0.0457764
-0.0299072	0.0299072
-0.0653076	0.0115967
-0.0946045	-0.00488281
-0.133972	-0.0146484
-0.169983	-0.015564
-0.184631	-0.0131226
-0.098877	-0.0106812
0.133362	-0.00732422
0.463257	-0.00213623
0.675659	0.00213623
0.569763	0.00335693
0.175781	0.00305176
-0.235901	0.00183105
-0.438538	0
-0.428162	-0.00610352
-0.340271	-0.0164795
-0.267639	-0.0274658
-0.215454	-0.0363159
-0.157776	-0.0424194
-0.0756836	-0.0466919
0.027771	-0.0500488
0.153198	-0.0518799
0.28656	-0.0521851
0.396423	-0.050354
0.437317	-0.0436401
0.394287	-0.0338745
0.26825	-0.0259399
0.0857544	-0.0250244
-0.107422	-0.0311279
-0.255127	-0.0387573
-0.320129	-0.0411987
-0.307312	-0.0369263
-0.241699	-0.0253296
-0.148621	-0.010376
-0.043335	0.00396729
0.0521851	0.0158691
0.108948	0.027771
0.120239	0.0427246
0.0939941	0.0592041
0.0494385	0.0738525
-0.00610352	0.0845337
-0.0588989	0.090332
-0.101013	0.0894165
-0.12207	0.0845337
-0.117188	0.0787354
-0.09552	0.0732422
-0.0604248	0.0686646
-0.017395	0.0650024
0.0216675	0.062561
0.0521851	0.0622559
0.0744629	0.06073
0.0933838	0.0540161
0.108643	0.0430298
0.110168	0.0296021
0.0933838	0.015564
0.0640869	0.00152588
0.0311279	-0.0100708
-0.00915527	-0.0189209
-0.0561523	-0.0253296
-0.0930786	-0.0305176
-0.0985718	-0.0335693
-0.0634766	-0.0344849
-0.00640869	-0.0332642
0.0418091	-0.0308228
0.0823975	-0.0296021
0.118103	-0.0308228
0.149841	-0.0354004
0.148926	-0.0390625
0.109558	-0.03479
0.038147	-0.0271606
-0.0646973	-0.0201416
-0.159302	-0.0131226
-0.203247	-0.00640869
-0.177002	-0.000305176
-0.101624	0.00549316
-0.0439453	0.0140381
-0.0146484	0.0250244
-0.0137329	0.0335693
-0.0180054	0.0384521
-0.000305176	0.0418091
0.0210571	0.0463867
0.0299072	0.0527954
0.0344849	0.0601196
0.0299072	0.0628662
0.0170898	0.0592041
-0.0115967	0.0534058
-0.0216675	0.0473022
0.00701904	0.0405884
0.0601196	0.0363159
0.0906372	0.0323486
0.0610352	0.0250244
-0.012207	0.0158691
-0.0775146	0.00793457
-0.106201	0.00366211
-0.0939941	0.000610352
-0.0509644	-0.00518799
0.0112915	-0.0115967
0.0561523	-0.0131226
0.065918	-0.0115967
0.0488281	-0.0109863
0.032959	-0.010376
0.0265503	-0.00793457
0.0201416	-0.00274658
0.00762939	0.00335693
-0.00823975	0.00976563
-0.0170898	0.0164795
-0.0131226	0.0228882
-0.00335693	0.0265503
0.00183105	0.0247192
0.00183105	0.0158691
0.00274658	0.00549316
0.0183105	-0.00305176
0.03479	-0.012207
0.0527954	-0.0250244
0.0628662	-0.0393677
0.0518799	-0.045166
0.0164795	-0.0424194
-0.0244141	-0.0363159
-0.0408936	-0.0314331
-0.0241089	-0.0283813
-0.00457764	-0.0262451
-0.0238037	-0.0213623
-0.0933838	-0.0143433
-0.224915	-0.00762939
-0.349426	-0.00183105
-0.307617	0.00335693
0.090332	0.00610352
0.657043	0.00823975
0.984497	0.0131226
0.827332	0.0213623
0.348511	0.0265503
-0.19104	0.027771
-0.615234	0.0314331
-0.841064	0.0408936
-0.836487	0.0506592
-0.653992	0.0570679
-0.396118	0.0576782
-0.116882	0.0543213
0.133972	0.0518799
0.299988	0.0500488
0.349426	0.0466919
0.307922	0.0408936
0.240479	0.0338745
0.178223	0.0265503
0.126038	0.0192261
0.0701904	0.0128174
0.0131226	0.00946045
-0.020752	0.00488281
-0.0332642	-0.00488281
-0.03479	-0.0143433
-0.0228882	-0.0167847
0.000610352	-0.012207
0.0204468	-0.00732422
0.0210571	-0.00488281
0.00854492	-0.00488281
0.00274658	-0.00701904
0.0119019	-0.0106812
0.032959	-0.0112915
0.0476074	-0.00701904
0.0524902	-0.00183105
0.0390625	-0.0012207
0.00946045	-0.0088501
-0.0119019	-0.0213623
-0.0131226	-0.0341797
0.000305176	-0.0405884
0.0164795	-0.0372314
0.0250244	-0.0326538
0.0167847	-0.0341797
-0.00762939	-0.0354004
-0.0338745	-0.0250244
-0.0567627	-0.00488281
-0.0793457	0.0146484
-0.101318	0.0302124
-0.125122	0.0445557
-0.137634	0.0570679
-0.118408	0.0668335
-0.0598145	0.0738525
0.00854492	0.0753784
0.0549316	0.0714111
0.065918	0.0634766
0.0488281	0.0515747
0.0305176	0.0375366
0.0134277	0.0244141
0.000610352	0.0149536
-0.00244141	0.00976563
0.00732422	0.00640869
0.0299072	0.00671387
0.0445557	0.0106812
0.0442505	0.0146484
0.0387573	0.0189209
0.0338745	0.0250244
0.0317383	0.0320435
0.027771	0.0396729
0.0100708	0.0476074
-0.0137329	0.0524902
-0.0311279	0.0518799
-0.0305176	0.0457764
-0.0262451	0.0369263
-0.0244141	0.0283813
-0.00610352	0.0216675
0.0238037	0.0149536
0.0457764	0.00823975
0.0488281	0.000915527
0.0396729	-0.00915527
0.027771	-0.0198364
0.0180054	-0.0283813
0.0234985	-0.0366211
0.0350952	-0.0445557
0.0250244	-0.0500488
-0.00610352	-0.0546265
-0.038147	-0.0598145
-0.0445557	-0.0610352
-0.0424194	-0.055542
-0.0604248	-0.0448608
-0.0860596	-0.0271606
-0.0915527	-0.00274658
-0.0567627	0.0271606
0.00701904	0.0558472
0.0585938	0.0778198
0.0814819	0.0930786
0.0854492	0.100098
0.072937	0.0979614
0.0473022	0.0918579
0.0140381	0.0836182
-0.0247192	0.0723267
-0.0698853	0.0616455
-0.0949097	0.0534058
-0.0866699	0.0469971
-0.0671387	0.0439453
-0.0717163	0.0427246
-0.0881958	0.043335
-0.0689697	0.0491333
-0.00549316	0.0598145
0.0616455	0.0726318
0.0927734	0.083313
0.0915527	0.0888062
0.0692749	0.0894165
0.0378418	0.0888062
0.00732422	0.0894165
-0.0216675	0.0897217
-0.0418091	0.0894165
-0.0405884	0.0888062
-0.0216675	0.0872803
0.00640869	0.083313
0.032959	0.078125
0.0552368	0.0732422
0.0720215	0.0683594
0.078125	0.0643921
0.072937	0.0637817
0.062561	0.0650024
0.0448608	0.0646973
0.0109863	0.0628662
-0.0326538	0.0582886
-0.0692749	0.0512695
-0.0860596	0.043335
-0.0759888	0.0360107
-0.038147	0.0256348
0.0149536	0.0115967
0.050354	-0.00274658
0.0564575	-0.012207
0.0424194	-0.0167847
0.0256348	-0.0213623
0.0186157	-0.0259399
0.0146484	-0.0250244
-0.0112915	-0.0140381
-0.0570679	0.000915527
-0.090332	0.0134277
-0.0854492	0.0219727
-0.0534058	0.0289917
-0.0180054	0.0366211
0.00274658	0.0457764
0.00579834	0.0524902
0	0.0549316
-0.00671387	0.0527954
-0.00427246	0.0454712
-0.00701904	0.0387573
-0.0332642	0.0341797
-0.0613403	0.0302124
-0.0595093	0.0253296
-0.0283813	0.0216675
0.00976563	0.0216675
0.0396729	0.0238037
0.0436401	0.0250244
0.0195313	0.0238037
-0.0106812	0.0201416
-0.015564	0.0146484
0.0128174	0.0088501
0.0463867	0.00335693
0.0579834	0.000305176
0.0466919	0.000915527
0.0241089	0.00366211
0.00671387	0.00488281
0.00640869	0.00244141
0.0231934	-0.00366211
0.0531006	-0.0100708
0.0790405	-0.015564
0.0842285	-0.0195313
0.0604248	-0.0274658
0.0140381	-0.0415039
-0.0408936	-0.0576782
-0.0823975	-0.0735474
-0.0921631	-0.0875854
-0.0738525	-0.0924683
-0.043335	-0.0811768
-0.0100708	-0.050354
0.0271606	-0.000915527
0.0753784	0.0640869
0.115051	0.142517
0.1297	0.23407
0.113831	0.339661
0.0665283	0.456238
-0.00366211	0.576172
-0.0912476	0.689087
-0.185547	0.783386
-0.262146	0.845032
-0.30426	0.86731
-0.284119	0.849915
-0.201721	0.799255
-0.0872803	0.718079
0.0268555	0.610046
0.106201	0.481873
0.153503	0.343018
0.185242	0.204468
0.200195	0.0726318
0.177612	-0.0408936
0.135803	-0.127563
0.12207	-0.185242
0.0521851	-0.215759
-0.0585938	-0.224915
-0.110474	-0.219116
-0.0473022	-0.202026
-0.00244141	-0.176392
-0.136414	-0.145874
-0.384521	-0.115662
-0.514832	-0.0872803
-0.351563	-0.0616455
0.0579834	-0.0405884
0.547791	-0.0244141
0.974121	-0.0119019
1.22589	-0.00610352
1.17279	-0.00701904
0.739746	-0.0100708
0.0134277	-0.0177002
-0.726929	-0.0292969
-1.18927	-0.0372314
-1.2619	-0.038147
-1.05438	-0.0344849
-0.759888	-0.0314331
-0.466309	-0.0308228
-0.152283	-0.0311279
0.202942	-0.0274658
0.545349	-0.015564
0.765381	-0.00366211
0.791016	0.00366211
0.619507	0.0100708
0.297546	0.0149536
-0.0976563	0.0134277
-0.454712	0.00732422
-0.661621	0.00457764
-0.669556	0.00762939
-0.52887	0.012207
-0.288086	0.0143433
0.0244141	0.0125122
0.364685	0.00915527
0.637817	0.00793457
0.749512	0.00823975
0.665894	0.0088501
0.432129	0.00915527
0.135498	0.00793457
-0.127869	0.00732422
-0.291443	0.00793457
-0.324707	0.00946045
-0.247192	0.0112915
-0.111084	0.0158691
0.020752	0.0216675
0.11261	0.0234985
0.129089	0.0247192
0.0927734	0.0292969
0.0357056	0.03479
-0.0222778	0.0375366
-0.0857544	0.0369263
-0.160217	0.0338745
-0.229797	0.0299072
-0.264282	0.0280762
-0.256042	0.0274658
-0.211487	0.0262451
-0.123596	0.0256348
0.00701904	0.0247192
0.129395	0.0256348
0.163879	0.0268555
0.114441	0.0274658
0.055542	0.0262451
0.0430298	0.0201416
0.0668335	0.012207
0.0830078	0.00762939
0.0750732	0.00244141
0.0488281	-0.00457764
0.00671387	-0.00915527
-0.0442505	-0.0088501
-0.0881958	-0.00549316
-0.0854492	0.000305176
-0.0271606	0.00976563
0.0610352	0.0195313
0.128479	0.027771
0.140381	0.0350952
0.103455	0.0427246
0.050354	0.0497437
0.00488281	0.0552368
-0.0308228	0.0558472
-0.0650024	0.0564575
-0.100708	0.0604248
-0.129395	0.0683594
-0.135803	0.0805664
-0.116882	0.093689
-0.0769043	0.10498
-0.0259399	0.114441
0.0274658	0.120239
0.0695801	0.122375
0.0872803	0.123291
0.0735474	0.12146
0.0460815	0.118103
0.0244141	0.115051
0.022583	0.114441
0.0411987	0.117798
0.0588989	0.125732
0.0253296	0.137329
-0.0518799	0.149231
-0.0985718	0.160522
-0.0680542	0.17334
0.0195313	0.187683
0.0958252	0.199585
0.126648	0.205994
0.116882	0.205078
0.0753784	0.2005
0.0201416	0.196838
-0.0274658	0.194092
-0.0656128	0.190125
-0.0906372	0.184631
-0.0930786	0.177917
-0.0787354	0.171814
-0.0604248	0.167236
-0.0366211	0.16449
-0.0131226	0.162964
0.00701904	0.158691
0.0265503	0.153809
0.0341797	0.14801
0.0405884	0.140686
0.038147	0.136108
0.0265503	0.140991
0.0125122	0.150146
0.00305176	0.15564
-0.0100708	0.157166
-0.0418091	0.155029
-0.0680542	0.152283
-0.0698853	0.151367
-0.038147	0.151978
0.0192261	0.149841
0.0735474	0.141907
0.101929	0.127258
0.0854492	0.11322
0.0231934	0.101318
-0.0653076	0.0906372
-0.129395	0.0805664
-0.126953	0.0698853
-0.06073	0.0588989
0.0183105	0.0494385
0.0680542	0.0421143
0.0747681	0.0375366
0.0363159	0.0369263
-0.020752	0.0384521
-0.062561	0.0396729
-0.0561523	0.0384521
-0.0119019	0.0354004
0.0262451	0.032959
0.0268555	0.0305176
0.012207	0.0271606
0.0238037	0.0238037
0.0674438	0.0216675
0.103149	0.0183105
0.100403	0.0131226
0.0717163	0.00640869
0.0393677	-0.00274658
0.00823975	-0.0115967
-0.0198364	-0.0195313
-0.0534058	-0.027771
-0.0897217	-0.0375366
-0.131226	-0.045166
-0.1651	-0.0479126
-0.180359	-0.0482178
-0.193787	-0.050354
-0.226746	-0.0549316
-0.175476	-0.0558472
0.0256348	-0.0476074
0.382385	-0.0341797
0.695496	-0.020752
0.751343	-0.0106812
0.474548	-0.00457764
0.0485229	-0.00183105
-0.28656	-0.00152588
-0.431824	-0.00183105
-0.446777	-0.00152588
-0.413208	-0.00244141
-0.354614	-0.00823975
-0.272827	-0.0143433
-0.169678	-0.0143433
-0.0466919	-0.00976563
0.09552	-0.00518799
0.233154	-0.00244141
0.320435	-0.00183105
0.32135	-0.0012207
0.249634	0.0012207
0.148315	0.00579834
0.0308228	0.0119019
-0.0857544	0.0180054
-0.172424	0.0213623
-0.195313	0.0244141
-0.141296	0.0271606
-0.0384521	0.0289917
0.0765991	0.0317383
0.151062	0.0366211
0.159912	0.0430298
0.102234	0.0476074
-0.050354	0.0466919
-0.0357056	0.0405884
-0.0149536	0.0320435
-0.0552368	0.0231934
-0.186768	0.0167847
-0.223389	0.0146484
-0.134583	0.0112915
-0.0396729	0.00457764
0.00579834	-0.00396729
0.0421143	-0.0115967
0.102234	-0.0167847
0.15625	-0.0204468
0.173035	-0.0247192
0.137634	-0.0274658
0.0857544	-0.027771
0.0448608	-0.0280762
0.022583	-0.0299072
-0.00549316	-0.0305176
-0.0372314	-0.0238037
-0.0598145	-0.0112915
-0.0817871	0.000610352
-0.10376	0.00701904
-0.111084	0.00946045
-0.0869751	0.0100708
-0.0231934	0.00823975
0.0656128	0.00823975
0.126648	0.0106812
0.131226	0.0137329
0.0927734	0.0109863
0.0341797	0.00427246
-0.0158691	0.0012207
-0.0427246	0.00488281
-0.0500488	0.0131226
-0.0650024	0.0219727
-0.0958252	0.0283813
-0.126648	0.0317383
-0.119019	0.0296021
-0.0643921	0.0265503
0.00335693	0.0274658
0.0445557	0.0283813
0.0518799	0.0268555
0.0442505	0.0262451
0.0299072	0.0271606
0.00915527	0.027771
-0.00793457	0.0296021
0.00518799	0.03479
0.043335	0.0418091
0.0674438	0.0457764
0.0521851	0.045166
0.0241089	0.0415039
0.00213623	0.0369263
-0.0106812	0.0326538
-0.0289917	0.0271606
-0.0442505	0.0186157
-0.0460815	0.00701904
-0.0411987	-0.00457764
-0.0527954	-0.0109863
-0.0784302	-0.0115967
-0.0863647	-0.0115967
-0.0436401	-0.0140381
0.0360107	-0.0177002
0.109558	-0.0195313
0.137329	-0.0210571
0.111084	-0.0262451
0.0534058	-0.0323486
0.00701904	-0.0372314
-0.000915527	-0.0393677
0.0268555	-0.0387573
0.0411987	-0.0366211
0.0134277	-0.0341797
-0.0424194	-0.0305176
-0.0802612	-0.0259399
-0.0714111	-0.022583
-0.0271606	-0.0192261
0.0280762	-0.0128174
0.0756836	-0.00427246
0.0973511	0.00274658
0.0762939	0.00823975
0.0198364	0.0112915
-0.0222778	0.00946045
-0.0283813	0.00549316
-0.0180054	0.00427246
-0.0189209	0.00640869
-0.0268555	0.00946045
-0.0311279	0.0128174
-0.0305176	0.0161743
-0.0408936	0.0177002
-0.0610352	0.0180054
-0.067749	0.0189209
-0.0524902	0.017395
-0.0250244	0.0131226
0.00152588	0.0106812
0.0308228	0.0109863
0.0619507	0.010376
0.0610352	0.00579834
0.0152588	0
-0.0515747	-0.00488281
-0.0930786	-0.00823975
-0.0915527	-0.010376
-0.0558472	-0.0109863
-0.00640869	-0.010376
0.0408936	-0.00701904
0.0683594	-0.000610352
0.0595093	0.00396729
0.0338745	0.00610352
0.010376	0.0088501
0.00183105	0.012207
-0.00488281	0.0137329
-0.00457764	0.0125122
0.00579834	0.0100708
0.0320435	0.00610352
0.0592041	0.000915527
0.0686646	-0.00579834
0.0527954	-0.0143433
0.0274658	-0.0228882
0.00274658	-0.0302124
-0.012207	-0.0369263
-0.0180054	-0.043335
-0.0271606	-0.0479126
-0.0454712	-0.0491333
-0.0531006	-0.0491333
-0.0372314	-0.0485229
-0.00335693	-0.0469971
0.0213623	-0.0421143
0.0146484	-0.0366211
-0.0128174	-0.0317383
-0.0460815	-0.0238037
-0.0680542	-0.0149536
-0.0704956	-0.00671387
-0.0512695	0.00183105
-0.0131226	0.0128174
0.0402832	0.0247192
0.0872803	0.0344849
0.0997925	0.0411987
0.0820923	0.0463867
0.0546265	0.0494385
0.0228882	0.0485229
-0.0152588	0.0439453
-0.0534058	0.0384521
-0.0726318	0.0332642
-0.0646973	0.0286865
-0.0408936	0.0204468
-0.017395	0.00671387
-0.00549316	-0.0088501
-0.00732422	-0.0204468
-0.0216675	-0.0256348
-0.0354004	-0.0271606
-0.0357056	-0.0262451
-0.0012207	-0.0256348
0.06073	-0.0238037
0.11322	-0.0231934
0.126038	-0.0250244
0.105896	-0.0259399
0.0732422	-0.0259399
0.0405884	-0.0219727
0.00762939	-0.0143433
-0.0204468	-0.00640869
-0.0442505	0.000305176
-0.0604248	0.00610352
-0.0665283	0.0100708
-0.0527954	0.0137329
-0.0180054	0.0164795
0.0161743	0.0192261
0.0244141	0.0201416
-0.00152588	0.020752
-0.0375366	0.0216675
-0.0772095	0.0195313
-0.102539	0.017395
-0.104675	0.0183105
-0.065918	0.0219727
-0.0262451	0.0265503
-0.0125122	0.0314331
-0.00457764	0.0354004
0.0106812	0.0363159
0.0390625	0.03479
0.0692749	0.0357056
0.093689	0.0372314
0.093689	0.03479
0.0643921	0.0314331
0.020752	0.0311279
-0.0146484	0.0338745
-0.0292969	0.0372314
-0.0292969	0.0402832
-0.0106812	0.043335
0.0137329	0.0445557
0.0335693	0.0430298
0.0387573	0.038147
0.0292969	0.0305176
0.0112915	0.0213623
-0.0210571	0.0131226
-0.0598145	0.00396729
-0.0799561	-0.00244141
-0.0515747	0
0.0119019	0.010376
0.0857544	0.0216675
0.123291	0.0311279
0.105591	0.0427246
0.0418091	0.0567627
-0.0167847	0.0708008
-0.0491333	0.0814819
-0.0668335	0.0854492
-0.0784302	0.0820923
-0.0720215	0.0720215
-0.0473022	0.055542
-0.00457764	0.0390625
0.0469971	0.0271606
0.0918579	0.0177002
0.103455	0.00854492
0.0714111	0.00335693
0.00976563	0.00274658
-0.0430298	0.00701904
-0.083313	0.0149536
-0.114136	0.0244141
-0.136414	0.0369263
-0.132446	0.0469971
-0.106506	0.0469971
-0.0604248	0.039978
0.0158691	0.0311279
0.085144	0.0204468
0.121765	0.0088501
0.0808716	-0.0012207
-0.00732422	-0.00854492
-0.0924683	-0.0140381
-0.12146	-0.0183105
-0.0811768	-0.0201416
0.00396729	-0.0192261
0.106506	-0.0189209
0.168152	-0.020752
0.184631	-0.0247192
0.144653	-0.0332642
0.0888062	-0.0421143
0.0396729	-0.0482178
-0.00213623	-0.0531006
-0.0405884	-0.057373
-0.0726318	-0.0585938
-0.0640869	-0.0543213
-0.0488281	-0.0411987
-0.0234985	-0.0222778
-0.0186157	-0.00457764
-0.00854492	0.0119019
-0.00762939	0.027771
-0.0247192	0.0378418
-0.0387573	0.0384521
-0.0344849	0.0320435
0.0106812	0.0231934
0.0531006	0.010376
0.0875854	-0.00946045
0.0823975	-0.0305176
0.0549316	-0.0491333
0.00335693	-0.0656128
-0.0430298	-0.0814819
-0.0750732	-0.09552
-0.0799561	-0.103455
-0.0531006	-0.102234
-0.0283813	-0.0909424
-0.0213623	-0.0701904
-0.0518799	-0.0387573
-0.0753784	0.00366211
-0.0634766	0.0588989
-0.00396729	0.135193
0.0671387	0.232849
0.114746	0.339355
0.116577	0.441895
0.0814819	0.53772
0.0201416	0.630493
-0.0534058	0.715332
-0.129395	0.779419
-0.186157	0.809326
-0.201111	0.800781
-0.151978	0.756531
-0.0527954	0.681458
0.0506592	0.582581
0.117493	0.465698
0.137634	0.339355
0.143127	0.211792
0.149841	0.0927734
0.151978	-0.012207
0.13855	-0.100403
0.128174	-0.168762
0.06073	-0.212097
-0.0860596	-0.231934
-0.206909	-0.234985
-0.205383	-0.228577
-0.13092	-0.215759
-0.132141	-0.195923
-0.237732	-0.170288
-0.319824	-0.145874
-0.226746	-0.126343
0.0598145	-0.108948
0.4422	-0.0915527
0.813293	-0.0756836
1.08215	-0.0628662
1.13708	-0.0482178
0.859985	-0.0314331
0.249023	-0.0158691
-0.502625	-0.00274658
-1.11359	0.00701904
-1.40808	0.0115967
-1.37329	0.0119019
-1.12671	0.0106812
-0.784302	0.00701904
-0.388184	0.00274658
0.06073	0.00366211
0.526733	0.00823975
0.921631	0.00976563
1.11542	0.00671387
1.04156	0.00457764
0.720215	0.00610352
0.257874	0.0125122
-0.220032	0.0222778
-0.597229	0.0299072
-0.797424	0.0296021
-0.782471	0.0238037
-0.561523	0.0180054
-0.186768	0.0180054
0.237732	0.0222778
0.57312	0.0265503
0.716248	0.0305176
0.646057	0.0344849
0.422058	0.0378418
0.150146	0.0415039
-0.0738525	0.0463867
-0.198364	0.0476074
-0.230103	0.0424194
-0.191345	0.032959
-0.110779	0.0213623
-0.0259399	0.0100708
0.0396729	-0.000915527
0.0790405	-0.0134277
0.085144	-0.0265503
0.062561	-0.038147
0.0210571	-0.0469971
-0.0366211	-0.0552368
-0.12085	-0.0643921
-0.202332	-0.071106
-0.236206	-0.0671387
-0.2005	-0.0531006
-0.136719	-0.0378418
-0.0808716	-0.0265503
-0.0524902	-0.0152588
-0.0244141	-0.000305176
-0.0204468	0.0152588
-0.0369263	0.0262451
-0.0567627	0.0314331
-0.0228882	0.0338745
0.0646973	0.0332642
0.161743	0.0289917
0.186462	0.0234985
0.144653	0.0177002
0.0997925	0.0131226
0.0753784	0.0112915
0.0424194	0.0143433
-0.00701904	0.022583
-0.0268555	0.0357056
-0.00549316	0.050354
0.0241089	0.0650024
0.0341797	0.0759888
0.0274658	0.0787354
0.000305176	0.0750732
-0.0582886	0.0714111
-0.0558472	0.0714111
0.0341797	0.0756836
0.0485229	0.0799561
-0.0897217	0.0814819
-0.23407	0.0811768
-0.203857	0.0820923
-0.0320435	0.0869751
0.115356	0.0958252
0.133362	0.107422
0.0686646	0.116272
0.00579834	0.117188
-0.0146484	0.11322
-0.000915527	0.111084
0.0119019	0.110168
0.0192261	0.111084
0.022583	0.11261
0.0234985	0.112915
0.0302124	0.114746
0.0341797	0.122681
0.0485229	0.138855
0.0531006	0.155945
0.0436401	0.164795
0.0302124	0.166016
0.0296021	0.162659
0.0296021	0.151978
0.0216675	0.137024
0.0244141	0.126038
0.0146484	0.124817
-0.0115967	0.128784
-0.0701904	0.136414
-0.124207	0.149841
-0.17395	0.169678
-0.230103	0.191956
-0.262451	0.211182
-0.292053	0.226746
-0.178223	0.236816
0.09552	0.239868
0.444336	0.236206
0.644531	0.223694
0.589905	0.202332
0.346985	0.177002
0.0265503	0.155029
-0.264893	0.142517
-0.462952	0.139465
-0.50354	0.139771
-0.404053	0.139465
-0.234375	0.140381
-0.0674438	0.140076
0.055542	0.136108
0.133972	0.131836
0.148621	0.126953
0.113525	0.117493
0.0595093	0.103455
0.0323486	0.0854492
0.0350952	0.0643921
0.0552368	0.0442505
0.0796509	0.0274658
0.0891113	0.0140381
0.0897217	0.00305176
0.0811768	-0.00640869
0.0744629	-0.0152588
0.0628662	-0.022583
0.038147	-0.0265503
-0.00457764	-0.0238037
-0.0604248	-0.0161743
-0.0869751	-0.00610352
-0.0421143	0.00427246
-0.03479	0.00854492
-0.111694	0.00640869
-0.185852	0.0012207
-0.128479	-0.00396729
0.0369263	-0.00854492
0.193176	-0.0146484
0.229797	-0.0213623
0.160217	-0.0262451
0.027771	-0.0286865
-0.0839233	-0.0280762
-0.161743	-0.0259399
-0.202942	-0.0228882
-0.227661	-0.0192261
-0.234985	-0.0161743
-0.209351	-0.0140381
-0.106201	-0.0137329
0.10437	-0.0143433
0.404663	-0.0146484
0.647278	-0.012207
0.634155	-0.00671387
0.293579	0
-0.180359	0.00488281
-0.497437	0.00457764
-0.530701	0.00396729
-0.40802	0.0106812
-0.284729	0.022583
-0.201721	0.0317383
-0.123596	0.0320435
-0.0424194	0.0234985
0.038147	0.0112915
0.128784	0.00244141
0.243225	0
0.352478	0.000915527
0.404968	0.000305176
0.376892	-0.00335693
0.271606	-0.00640869
0.107117	-0.00640869
-0.0720215	-0.00549316
-0.219116	-0.00640869
-0.289307	-0.0109863
-0.280457	-0.0183105
-0.211792	-0.0265503
-0.106506	-0.0338745
0.012207	-0.0396729
0.115967	-0.0430298
0.173645	-0.0430298
0.184021	-0.0424194
0.161438	-0.0445557
0.112	-0.0469971
0.0314331	-0.0436401
-0.0592041	-0.0354004
-0.126648	-0.0247192
-0.153198	-0.0119019
-0.139771	0.000915527
-0.110168	0.00946045
-0.0793457	0.0106812
-0.055542	0.00488281
-0.0265503	0.000305176
0.0222778	0.00366211
0.083313	0.0128174
0.114441	0.0201416
0.0860596	0.0201416
0.0180054	0.0177002
-0.0466919	0.0195313
-0.0744629	0.0253296
-0.0738525	0.0326538
-0.0692749	0.0387573
-0.071106	0.0408936
-0.0558472	0.0405884
-0.0131226	0.0408936
0.0393677	0.0415039
0.0820923	0.0405884
0.0982666	0.038147
0.0906372	0.0344849
0.0637817	0.0299072
0.0335693	0.027771
0.0128174	0.0289917
0.00518799	0.0311279
0.00579834	0.0302124
-0.015564	0.0253296
-0.0628662	0.0201416
-0.11322	0.0152588
-0.127563	0.00488281
-0.0875854	-0.00946045
-0.0265503	-0.020752
0.0296021	-0.0265503
0.0650024	-0.0274658
0.085144	-0.0268555
0.0881958	-0.0274658
0.057373	-0.0265503
0.0177002	-0.022583
-0.00823975	-0.0167847
-0.00946045	-0.00915527
0.00488281	-0.00427246
0.0112915	-0.00366211
0.012207	-0.00518799
0.0149536	-0.00640869
0.0299072	-0.00732422
0.0506592	-0.0112915
0.0567627	-0.0161743
0.039978	-0.0161743
0.000610352	-0.00762939
-0.0390625	0.00701904
-0.0701904	0.020752
-0.0915527	0.0302124
-0.109558	0.0357056
-0.107727	0.0372314
-0.055542	0.0372314
0.0259399	0.0360107
0.0808716	0.0323486
0.0787354	0.0259399
0.0262451	0.0167847
-0.0326538	0.00610352
-0.0704956	-0.00549316
-0.0820923	-0.0131226
-0.0665283	-0.0140381
-0.0350952	-0.0106812
0.0115967	-0.00732422
0.0595093	-0.00396729
0.093689	0.00152588
0.116882	0.00915527
0.122986	0.0134277
0.107117	0.0119019
0.0616455	0.00854492
0.00213623	0.00488281
-0.0482178	-0.000305176
-0.0741577	-0.00762939
-0.0708008	-0.0183105
-0.0469971	-0.0341797
-0.0268555	-0.0521851
-0.0259399	-0.0640869
-0.0280762	-0.0683594
-0.00427246	-0.0671387
0.0512695	-0.0643921
0.106506	-0.0604248
0.110168	-0.0476074
0.0579834	-0.0250244
-0.0222778	0.000610352
-0.0942993	0.0231934
-0.130005	0.038147
-0.130005	0.045166
-0.0909424	0.0476074
-0.0253296	0.0442505
0.0320435	0.0363159
0.0595093	0.0262451
0.0476074	0.015564
0.0256348	0.00549316
0.0149536	-0.00213623
0.0296021	-0.00671387
0.0402832	-0.00946045
0.012207	-0.00915527
-0.0372314	-0.00427246
-0.0939941	0.00213623
-0.119019	0.00854492
-0.0994873	0.0112915
-0.0619507	0.0115967
-0.000915527	0.0119019
0.0430298	0.0100708
0.0869751	0.00274658
0.108032	-0.00640869
0.101013	-0.0128174
0.0637817	-0.0140381
0.00732422	-0.0131226
-0.0180054	-0.0146484
-0.00823975	-0.0170898
0.0234985	-0.0180054
0.0424194	-0.0177002
0.0259399	-0.0167847
-0.000915527	-0.0152588
-0.032959	-0.015564
-0.0637817	-0.0161743
-0.0753784	-0.0112915
-0.0436401	-0.00457764
0.0204468	-0.000915527
0.072937	-0.0012207
0.0595093	-0.00183105
0.0466919	-0.00213623
0.0497437	-0.00396729
-0.065918	-0.0088501
-0.115662	-0.0170898
-0.110779	-0.0265503
-0.0576782	-0.0366211
0.0210571	-0.0482178
0.0796509	-0.0585938
0.112305	-0.0634766
0.156555	-0.0582886
0.0375366	-0.0454712
-0.0314331	-0.0308228
-0.0314331	-0.0152588
-0.108032	-0.00152588
-0.108337	0.00701904
-0.135498	0.0106812
-0.0488281	0.0143433
0.117798	0.0186157
0.127258	0.0213623
0.131836	0.0198364
0.0335693	0.0164795
-0.110779	0.0119019
-0.136414	0.0100708
-0.134888	0.0112915
-0.0405884	0.015564
0.0561523	0.0241089
0.0796509	0.0323486
0.153809	0.0338745
0.137024	0.0296021
0.0726318	0.0158691
0.0466919	-0.00610352
-0.0497437	-0.0283813
-0.090332	-0.0411987
-0.119324	-0.0448608
-0.154724	-0.0430298
-0.09552	-0.0363159
-0.0811768	-0.0259399
-0.0378418	-0.0128174
0.0375366	0.00152588
0.015564	0.0149536
-0.0115967	0.0271606
-0.0308228	0.0369263
-0.00183105	0.0436401
0.104675	0.0457764
0.144958	0.0411987
0.150146	0.0311279
0.103455	0.0189209
0.00610352	0.00854492
-0.0460815	0.0012207
-0.0845337	-0.00396729
-0.09552	-0.00915527
-0.0653076	-0.0137329
-0.0357056	-0.017395
0.00946045	-0.0201416
0.0317383	-0.0228882
0.0180054	-0.0268555
0.0366211	-0.0289917
0.057373	-0.0265503
0.0689697	-0.0222778
0.0570679	-0.015564
0.0210571	-0.0088501
0.0180054	-0.00396729
0.0137329	0.00152588
-0.0119019	0.00823975
-0.039978	0.0192261
-0.0692749	0.032959
-0.0640869	0.0445557
-0.0360107	0.050354
0	0.0540161
0.038147	0.0616455
0.0506592	0.0689697
0.0421143	0.0686646
0.00976563	0.0622559
-0.0177002	0.0543213
-0.0195313	0.0497437
-0.0170898	0.0506592
-0.0137329	0.0534058
-0.0112915	0.0576782
-0.0244141	0.062561
-0.0598145	0.0704956
-0.128479	0.0814819
-0.17395	0.0933838
-0.146484	0.103455
-0.055542	0.110168
0.0650024	0.11322
0.158081	0.111389
0.195923	0.10498
0.169373	0.0939941
0.101929	0.0805664
0.0317383	0.067749
-0.022583	0.0564575
-0.0488281	0.0476074
-0.0753784	0.0418091
-0.088501	0.0384521
-0.0854492	0.0369263
-0.0582886	0.0366211
-0.00854492	0.0350952
0.0283813	0.0320435
0.0344849	0.0305176
0.0134277	0.0280762
-0.0012207	0.0210571
0.010376	0.00854492
0.0354004	-0.00640869
0.0521851	-0.0219727
0.0476074	-0.0372314
0.0393677	-0.0494385
0.0454712	-0.0610352
0.0448608	-0.0753784
0.0219727	-0.0897217
-0.0198364	-0.0961304
-0.0515747	-0.088501
-0.0537109	-0.0717163
-0.0259399	-0.0546265
0.0332642	-0.0378418
0.0805664	-0.0204468
0.0668335	-0.00244141
0.00488281	0.0161743
-0.057373	0.0311279
-0.0775146	0.0396729
-0.0720215	0.0430298
-0.0622559	0.0430298
-0.0466919	0.0372314
-0.0216675	0.022583
0.010376	0.00183105
0.0366211	-0.0137329
0.0512695	-0.0234985
0.0491333	-0.0305176
0.020752	-0.0360107
-0.0219727	-0.0393677
-0.0631714	-0.0405884
-0.0881958	-0.0405884
-0.0704956	-0.0411987
-0.0131226	-0.0439453
0.0384521	-0.0469971
0.0366211	-0.0460815
-0.000610352	-0.0357056
-0.015564	-0.0189209
0.00762939	0.000305176
0.039978	0.0219727
0.0552368	0.0540161
0.0689697	0.102539
0.0717163	0.169678
0.0595093	0.255127
0.0259399	0.354614
-0.00427246	0.460205
-0.017395	0.561218
-0.0296021	0.650635
-0.0546265	0.722046
-0.105286	0.768738
-0.161743	0.786438
-0.198364	0.769958
-0.186462	0.714417
-0.127869	0.62561
-0.039978	0.516052
0.0518799	0.393982
0.126343	0.263367
0.184937	0.131531
0.232544	0.00915527
0.249023	-0.0942993
0.240173	-0.169373
0.226135	-0.212097
0.159302	-0.226746
-0.00305176	-0.223389
-0.168762	-0.211487
-0.238037	-0.192566
-0.231323	-0.168762
-0.270691	-0.145874
-0.381165	-0.127258
-0.428162	-0.110168
-0.2771	-0.0930786
0.0939941	-0.0732422
0.557556	-0.0527954
0.96405	-0.0366211
1.17859	-0.0250244
1.08215	-0.0170898
0.646362	-0.0109863
-0.0393677	-0.00152588
-0.716553	0.0134277
-1.15692	0.0280762
-1.26648	0.0354004
-1.09558	0.0332642
-0.788574	0.0244141
-0.469971	0.0146484
-0.189514	0.00701904
0.0897217	0.00152588
0.37262	-0.00274658
0.619507	-0.00854492
0.749512	-0.0167847
0.702515	-0.0247192
0.489502	-0.0286865
0.153503	-0.0271606
-0.19928	-0.0238037
-0.483704	-0.0210571
-0.625305	-0.022583
-0.59967	-0.0274658
-0.393372	-0.0265503
-0.0396729	-0.017395
0.334473	-0.00640869
0.614014	-0.000915527
0.719299	0.0012207
0.671997	0.0012207
0.50293	-0.00396729
0.261841	-0.0164795
0.0167847	-0.0311279
-0.188293	-0.0411987
-0.286255	-0.0473022
-0.274963	-0.0497437
-0.183716	-0.0497437
-0.0964355	-0.0509644
-0.0524902	-0.0534058
-0.0265503	-0.0494385
-0.0012207	-0.0338745
0.0344849	-0.0128174
0.0274658	0.00640869
-0.020752	0.0198364
-0.104675	0.0274658
-0.180054	0.0317383
-0.219727	0.0354004
-0.223389	0.0378418
-0.192566	0.0378418
-0.157166	0.0366211
-0.102539	0.0350952
-0.0497437	0.0323486
-0.000610352	0.0283813
0.0411987	0.0253296
0.0805664	0.0259399
0.108032	0.0256348
0.116272	0.022583
0.121155	0.0183105
0.134583	0.0158691
0.145569	0.0164795
0.133972	0.0195313
0.109253	0.0231934
0.0714111	0.0262451
0.0314331	0.0289917
-0.00610352	0.0317383
-0.0524902	0.0344849
-0.101013	0.0360107
-0.139465	0.0357056
-0.139465	0.0332642
-0.104065	0.0292969
-0.0576782	0.0231934
-0.0292969	0.0149536
-0.012207	0.00549316
0.00457764	0.000610352
0.0390625	0.00244141
0.0732422	0.00732422
0.0872803	0.0109863
0.0772095	0.0140381
0.0540161	0.0180054
0.0323486	0.0238037
0.0305176	0.0305176
0.0338745	0.039978
0.0323486	0.0549316
0.0231934	0.0735474
0.00640869	0.0891113
-0.00946045	0.100403
-0.022583	0.11261
-0.0280762	0.125732
-0.0335693	0.138855
-0.0357056	0.146179
-0.0283813	0.1474
0.000305176	0.147095
0.0415039	0.148926
0.0714111	0.15625
0.0775146	0.165405
0.0479126	0.172119
0.00701904	0.175781
-0.0292969	0.177917
-0.0564575	0.18219
-0.0808716	0.191345
-0.112915	0.200806
-0.118408	0.203552
-0.0906372	0.197754
-0.0457764	0.188599
-0.012207	0.180054
-0.0100708	0.17395
-0.0189209	0.168762
-0.00732422	0.164795
0.0271606	0.162354
0.0628662	0.163269
0.0723267	0.166931
0.0668335	0.169983
0.0634766	0.169067
0.0485229	0.164185
0.0177002	0.157166
-0.0326538	0.149841
-0.0631714	0.139771
-0.0561523	0.127258
-0.0286865	0.115051
0.00427246	0.102539
0.0186157	0.0894165
0.0161743	0.0762939
0.0210571	0.0628662
0.0167847	0.050354
0.017395	0.039978
0.0231934	0.0296021
0.0308228	0.0134277
0.0372314	-0.00701904
0.0378418	-0.0222778
0.0415039	-0.0271606
0.0421143	-0.0247192
0.0115967	-0.020752
-0.0259399	-0.0152588
-0.032959	-0.00854492
-0.0192261	-0.00152588
0.00488281	0.00427246
0.0195313	0.00915527
0.0201416	0.0112915
0.00915527	0.00823975
-0.00976563	0.00274658
-0.0244141	-0.00427246
-0.0268555	-0.0140381
-0.0143433	-0.0262451
0.00213623	-0.0372314
0.015564	-0.0436401
0.0131226	-0.0402832
-0.0234985	-0.0332642
-0.0964355	-0.0296021
-0.167847	-0.0314331
-0.203552	-0.0354004
-0.198059	-0.0354004
-0.173645	-0.0308228
-0.162659	-0.0265503
-0.121765	-0.0247192
0.0170898	-0.0216675
0.293579	-0.0164795
0.59967	-0.010376
0.716248	-0.00701904
0.501404	-0.00976563
0.0909424	-0.0152588
-0.239868	-0.0210571
-0.360413	-0.0280762
-0.354614	-0.0344849
-0.341187	-0.0415039
-0.344543	-0.0485229
-0.328979	-0.0543213
-0.265503	-0.057373
-0.142822	-0.0585938
0.0265503	-0.0558472
0.220337	-0.0448608
0.383911	-0.0292969
0.453796	-0.0152588
0.401917	-0.00610352
0.26123	-0.00213623
0.100098	-0.0012207
-0.0317383	-0.00274658
-0.113831	-0.00671387
-0.146179	-0.0115967
-0.134583	-0.015564
-0.0805664	-0.0180054
-0.00335693	-0.0192261
0.0531006	-0.0177002
0.0561523	-0.0143433
0.0192261	-0.0143433
-0.0210571	-0.017395
-0.0332642	-0.0186157
-0.0286865	-0.0161743
-0.0332642	-0.0149536
-0.0650024	-0.0204468
-0.105591	-0.0274658
-0.125732	-0.0283813
-0.10498	-0.0308228
-0.0485229	-0.0411987
0.0350952	-0.0466919
0.117188	-0.0405884
0.160217	-0.0253296
0.136108	-0.0088501
0.0408936	0.00396729
-0.0906372	0.0134277
-0.186157	0.0201416
-0.190735	0.0253296
-0.112	0.0317383
-0.0128174	0.0405884
0.0427246	0.0460815
0.0384521	0.0424194
0.0012207	0.0314331
-0.0204468	0.0219727
-0.00793457	0.0195313
0.0238037	0.0213623
0.0531006	0.0222778
0.0680542	0.0201416
0.0704956	0.0152588
0.0592041	0.0088501
0.0344849	0.00366211
0	-0.0012207
-0.0289917	-0.0100708
-0.0393677	-0.0216675
-0.0183105	-0.0311279
0.0134277	-0.0390625
0.0302124	-0.0436401
0.0338745	-0.0436401
0.0183105	-0.0408936
-0.00762939	-0.0363159
-0.0302124	-0.0317383
-0.0271606	-0.0256348
-0.00274658	-0.0180054
0.0332642	-0.00915527
0.0549316	-0.00305176
0.0567627	-0.00396729
0.0442505	-0.0128174
0.0289917	-0.0256348
0.0427246	-0.0387573
0.083313	-0.0506592
0.0918579	-0.0604248
0.03479	-0.0653076
-0.0479126	-0.062561
-0.0927734	-0.0552368
-0.113525	-0.0439453
-0.115662	-0.0271606
-0.0982666	-0.00793457
-0.0543213	0.00976563
0.00366211	0.0259399
0.0344849	0.0408936
0.0299072	0.0482178
-0.000305176	0.043335
-0.0231934	0.0320435
-0.0360107	0.0247192
-0.0430298	0.0198364
-0.0564575	0.0134277
-0.0750732	0.00396729
-0.0799561	-0.00335693
-0.0695801	-0.00457764
-0.0439453	0.000305176
-0.0231934	0.00640869
-0.0265503	0.0106812
-0.154419	0.0112915
0.1474	0.010376
-0.0454712	0.00915527
-0.0778198	0.00640869
0.0146484	0.00213623
0.452271	-0.00396729
0.684204	-0.0128174
0.453796	-0.022583
0.0259399	-0.0338745
-0.249329	-0.0463867
-0.274658	-0.0579834
-0.199585	-0.0650024
-0.137024	-0.0714111
-0.10437	-0.0784302
-0.0610352	-0.0836182
-0.00732422	-0.0854492
0.0320435	-0.085144
0.0476074	-0.0845337
0.0515747	-0.0805664
0.027771	-0.0698853
-0.0170898	-0.0540161
-0.0540161	-0.0366211
-0.0543213	-0.0189209
-0.0244141	-0.00732422
0.0234985	-0.000305176
0.083313	0.00793457
0.132141	0.0161743
0.115967	0.022583
0.022583	0.0289917
-0.0906372	0.0357056
-0.150146	0.03479
-0.152283	0.027771
-0.128479	0.0195313
-0.103455	0.0146484
-0.0704956	0.0140381
-0.0314331	0.0109863
-0.00701904	0.00610352
0.0112915	0.00152588
0.0283813	-0.00213623
0.0408936	-0.00427246
0.0311279	-0.00335693
0.00152588	-0.00152588
-0.0286865	0
-0.0378418	0.00213623
-0.0164795	0.00335693
0.0378418	0.00244141
0.0924683	0.000610352
0.104675	-0.00213623
0.238953	-0.00457764
0.521545	-0.00854492
0.365906	-0.0137329
-0.375366	-0.0195313
-1.08154	-0.0244141
-1.09344	-0.0317383
-0.391846	-0.0405884
0.374451	-0.0466919
0.79834	-0.0494385
0.828552	-0.0531006
0.643005	-0.0610352
0.354919	-0.0708008
0.0485229	-0.0738525
-0.167236	-0.0726318
-0.245361	-0.0744629
-0.187988	-0.0732422
-0.0671387	-0.0619507
0.0314331	-0.0463867
0.0314331	-0.0308228
-0.0476074	-0.0167847
-0.14679	-0.00305176
-0.21759	0.00793457
-0.236816	0.0128174
-0.193787	0.0137329
-0.0967407	0.0140381
0.0228882	0.0137329
0.110779	0.0125122
0.131836	0.00854492
0.0909424	0.00366211
0.0201416	0.000915527
-0.0469971	0.00305176
-0.0720215	0.00701904
-0.0463867	0.0106812
-0.00305176	0.0112915
0.0161743	0.00732422
0.00366211	0.00152588
-0.0149536	-0.0012207
-0.0088501	-0.00335693
0.00244141	-0.0100708
-0.00152588	-0.0186157
-0.0143433	-0.0210571
-0.0134277	-0.0186157
0.0100708	-0.0131226
0.0372314	-0.00457764
0.0439453	0.00671387
0.0259399	0.0180054
-0.000915527	0.0265503
-0.0164795	0.0311279
-0.0125122	0.0296021
-0.000915527	0.0219727
0.0125122	0.0115967
0.0311279	0.000610352
0.0543213	-0.0106812
0.0595093	-0.022583
0.0256348	-0.0350952
-0.0256348	-0.0476074
-0.0506592	-0.0543213
-0.0271606	-0.0518799
0.0286865	-0.0454712
0.0942993	-0.039978
0.133972	-0.0332642
0.117493	-0.0241089
0.06073	-0.0137329
0.00549316	-0.00610352
-0.0314331	0.000305176
-0.0448608	0.00946045
-0.0500488	0.0216675
-0.057373	0.0299072
-0.0643921	0.0292969
-0.0704956	0.0268555
-0.0671387	0.0274658
-0.0494385	0.032959
-0.0234985	0.0445557
-0.0134277	0.0588989
-0.0308228	0.0668335
-0.0622559	0.0646973
-0.0732422	0.0585938
-0.0439453	0.0540161
0.0216675	0.0500488
0.0765991	0.0439453
0.0863647	0.0350952
0.0427246	0.0262451
-0.0201416	0.0149536
-0.0640869	0.000610352
-0.072937	-0.010376
-0.0491333	-0.00732422
-0.00488281	0.00732422
0.0369263	0.0247192
0.0643921	0.0430298
0.0723267	0.0646973
0.0552368	0.0845337
0.020752	0.0970459
-0.00518799	0.101013
-0.00701904	0.0939941
-0.00305176	0.0750732
-0.0134277	0.0497437
-0.0280762	0.0222778
-0.038147	-0.00457764
-0.0384521	-0.0289917
-0.0314331	-0.0506592
-0.017395	-0.0695801
0.0137329	-0.0817871
0.0610352	-0.0848389
0.0973511	-0.0814819
0.11261	-0.0744629
0.112915	-0.065918
0.0961304	-0.0582886
0.0622559	-0.0543213
0.0140381	-0.0561523
-0.03479	-0.06073
-0.0695801	-0.0592041
-0.0759888	-0.0515747
-0.062561	-0.0430298
-0.0296021	-0.03479
0.00518799	-0.0274658
0.017395	-0.0216675
0.010376	-0.0183105
-0.010376	-0.0164795
-0.0308228	-0.0106812
-0.0476074	-0.00213623
-0.0692749	0.00274658
-0.0894165	0.00305176
-0.0985718	0.00244141
-0.0949097	0.00488281
-0.0769043	0.010376
-0.0616455	0.0143433
-0.0372314	0.0128174
0.00396729	0.00549316
0.0720215	-0.00335693
0.131531	-0.0146484
0.148926	-0.0308228
0.127563	-0.0476074
0.0900269	-0.0616455
0.0424194	-0.0720215
-0.0213623	-0.0802612
-0.0823975	-0.0817871
-0.112915	-0.0698853
-0.0869751	-0.0457764
-0.0115967	-0.0119019
0.0808716	0.0350952
0.140381	0.0952148
0.13855	0.1651
0.101013	0.24353
0.0598145	0.332336
0.0152588	0.428467
-0.0411987	0.52063
-0.108643	0.603027
-0.163574	0.670166
-0.19165	0.713501
-0.212708	0.726013
-0.198059	0.703125
-0.133057	0.643005
0.00671387	0.552063
0.152588	0.442505
0.254517	0.319214
0.252991	0.189819
0.198059	0.0683594
0.124512	-0.0363159
0.0839233	-0.119629
0.0454712	-0.178833
0.0134277	-0.213013
-0.0588989	-0.223694
0.0424194	-0.215759
-0.114441	-0.194702
-0.449524	-0.165405
-0.707092	-0.134583
-0.658264	-0.107727
-0.352783	-0.0875854
-0.00762939	-0.0750732
0.330811	-0.0680542
0.602722	-0.0637817
0.842896	-0.06073
1.02264	-0.055542
1.08154	-0.0491333
0.92865	-0.045166
0.5896	-0.043335
-0.171509	-0.0384521
-1.31683	-0.0286865
-2.14905	-0.0195313
-1.79077	-0.0143433
-0.588989	-0.0128174
0.424194	-0.0137329
0.620117	-0.0146484
0.319214	-0.0161743
0.0921631	-0.0189209
0.147705	-0.0231934
0.342407	-0.027771
0.395203	-0.0302124
0.312195	-0.0283813
0.146179	-0.0250244
-0.0628662	-0.0265503
0.123901	-0.0323486
0.388489	-0.0350952
0.406494	-0.0335693
-0.0286865	-0.0338745
-0.587158	-0.0372314
-0.855713	-0.0430298
-0.700684	-0.0485229
-0.225525	-0.050354
0.193787	-0.0473022
0.382996	-0.0372314
0.357666	-0.0241089
0.273132	-0.0112915
0.188904	0.0012207
0.101624	0.012207
0.017395	0.0210571
0.0134277	0.0289917
0.167847	0.0375366
0.397644	0.0448608
0.284729	0.0469971
-0.101013	0.0436401
-0.539856	0.0354004
-0.756531	0.0228882
-0.74585	0.0115967
-0.505066	0.00396729
-0.234985	-0.000915527
0.300293	-0.00610352
0.72937	-0.0134277
0.874023	-0.0228882
0.560303	-0.0308228
0.0323486	-0.0326538
-0.368042	-0.0265503
-0.487366	-0.0177002
-0.383911	-0.0112915
-0.282898	-0.00793457
-0.195007	-0.00762939
0.00152588	-0.00579834
0.315247	-0.0012207
0.379944	0.00427246
0.290833	0.0106812
0.202332	0.0192261
0.238342	0.0253296
0.154114	0.0247192
-0.246277	0.0183105
-0.785828	0.00976563
-0.749207	0.00488281
-0.0704956	0.00915527
0.742493	0.0180054
1.09558	0.0247192
0.845947	0.0283813
0.291443	0.0326538
-0.211487	0.0375366
-0.505371	0.0430298
-0.544128	0.0491333
-0.454407	0.0564575
-0.27832	0.0646973
-0.0921631	0.0701904
0.0424194	0.0668335
0.0927734	0.0579834
0.0701904	0.0494385
0.0158691	0.0415039
-0.0448608	0.0372314
-0.0357056	0.039978
0.0299072	0.0497437
0.0964355	0.0640869
0.0592041	0.0802612
-0.0674438	0.09552
-0.193787	0.107422
-0.237122	0.117493
-0.190125	0.127563
-0.121765	0.137329
-0.0415039	0.147095
0.0549316	0.154724
0.201721	0.158386
0.38269	0.159302
0.45166	0.158081
0.220947	0.15686
-0.108337	0.154114
-0.289917	0.152283
-0.227051	0.155945
-0.0930786	0.162048
-0.0332642	0.167542
0.0259399	0.170593
0.0985718	0.17395
0.270386	0.175476
0.116882	0.172119
-0.239258	0.167236
-0.596924	0.160828
-0.534363	0.154114
-0.139465	0.14801
0.305786	0.142517
0.57373	0.135498
0.603333	0.126648
0.426636	0.117188
0.14679	0.109253
-0.0912476	0.10498
-0.217896	0.105286
-0.236511	0.106201
-0.187988	0.102539
-0.0912476	0.0927734
0.0674438	0.0820923
0.265198	0.0772095
0.456848	0.0772095
0.515747	0.0726318
0.301208	0.0610352
-0.0845337	0.0527954
-0.489502	0.0518799
-0.692444	0.0518799
-0.6604	0.0485229
-0.448914	0.0427246
-0.160217	0.0360107
0.0930786	0.0271606
0.239563	0.0195313
0.282898	0.0158691
0.264893	0.0140381
0.214844	0.0106812
0.120239	0.00427246
-0.0338745	-0.00213623
0.0506592	-0.00396729
-0.0479126	-0.00213623
-0.186462	-0.000915527
-0.670471	-0.00396729
-1.0611	-0.0088501
-1.05743	-0.0119019
-0.572205	-0.00915527
0.185242	-0.000915527
0.792542	0.00518799
1.07239	0.00701904
0.910339	0.00579834
0.641479	0.00457764
0.407715	0.00335693
0.175171	0
0.0213623	-0.00610352
-0.0357056	-0.0167847
0.00823975	-0.0292969
0.0698853	-0.0405884
0.0524902	-0.0476074
-0.057373	-0.0509644
-0.100098	-0.0549316
-0.0964355	-0.0579834
-0.00579834	-0.0552368
0.032959	-0.0454712
-0.088501	-0.0332642
-0.305481	-0.0253296
-0.397339	-0.0250244
-0.270386	-0.0265503
-0.1297	-0.0247192
-0.0457764	-0.0219727
-0.065918	-0.0213623
-0.0405884	-0.0216675
0.0463867	-0.022583
0.168762	-0.0247192
0.254822	-0.0259399
0.26062	-0.0247192
0.183411	-0.0201416
0.039978	-0.0140381
-0.125122	-0.00854492
-0.261536	-0.00335693
-0.322266	0.00213623
-0.292969	0.0115967
-0.192566	0.020752
-0.0592041	0.0244141
0.0714111	0.0250244
0.183411	0.0259399
0.268555	0.0231934
0.317383	0.0195313
0.32196	0.0204468
0.259705	0.0222778
0.151672	0.020752
-0.0106812	0.0180054
-0.115356	0.0158691
-0.186157	0.0128174
-0.231323	0.00823975
-0.267029	0.00244141
-0.319519	-0.00427246
-0.0662231	-0.0109863
0.660706	-0.0149536
0.950928	-0.0180054
0.455017	-0.0244141
-0.517273	-0.0296021
-1.22467	-0.0305176
-1.19568	-0.0274658
-0.603943	-0.0262451
0.0320435	-0.0317383
0.365601	-0.0369263
0.457458	-0.0323486
0.53009	-0.0186157
0.647278	-0.00579834
0.628967	0.0012207
0.429688	0.00335693
0.116882	0.00640869
-0.141602	0.0164795
-0.229492	0.0314331
-0.276184	0.0454712
-0.346375	0.0546265
-0.368042	0.0561523
-0.352478	0.050354
-0.304871	0.0393677
-0.205994	0.0259399
-0.0140381	0.0134277
0.176392	0.00518799
0.244446	0.00244141
0.221558	0.00335693
0.159607	0.00518799
0.145264	0.00640869
0.123901	0.00793457
0.0927734	0.0106812
0.0445557	0.0134277
0.00946045	0.0170898
-0.020752	0.0189209
-0.0601196	0.0146484
-0.090332	0.0100708
-0.0830078	0.0100708
-0.0424194	0.0106812
-0.0292969	0.00610352
-0.0515747	0.00183105
-0.0695801	0.000915527
-0.0286865	0.00518799
0.06073	0.0109863
0.148315	0.0152588
0.205688	0.0198364
0.240479	0.0241089
0.237732	0.0241089
0.0961304	0.0213623
-0.187683	0.0186157
-0.4422	0.0140381
-0.448608	0.00762939
-0.254517	-0.000610352
0.0259399	-0.0088501
0.65033	-0.0149536
0.559692	-0.0204468
0.505066	-0.027771
0.062561	-0.0326538
-0.446167	-0.0323486
-0.96405	-0.0302124
-1.22345	-0.0286865
-0.918579	-0.0244141
-0.308838	-0.0158691
0.307922	-0.00518799
0.680237	0.00488281
0.8078	0.0143433
0.757141	0.0201416
0.53894	0.020752
0.270081	0.0189209
0.0601196	0.017395
-0.0592041	0.0167847
-0.121765	0.0152588
-0.140076	0.0100708
-0.138855	0.000305176
-0.141907	-0.0109863
-0.149841	-0.020752
-0.116272	-0.0271606
-0.0320435	-0.0250244
0.0479126	-0.0158691
0.0701904	-0.00488281
0.022583	0.00671387
-0.0332642	0.0189209
-0.0637817	0.0302124
-0.0485229	0.039978
-0.00793457	0.0491333
0.0292969	0.0567627
0.0311279	0.0564575
0.15564	0.0448608
0.350342	0.0350952
0.413818	0.0335693
0.180664	0.0308228
-0.213013	0.0222778
-0.527649	0.0137329
-0.641479	0.00762939
-0.558777	0.00335693
-0.311279	0.0012207
0.0228882	0.000305176
0.318298	-0.00244141
0.4599	-0.00610352
0.444336	-0.0100708
0.310059	-0.0167847
0.139465	-0.027771
-0.0115967	-0.0369263
-0.111694	-0.0396729
-0.221558	-0.0357056
-0.350952	-0.0274658
-0.450134	-0.0189209
-0.382996	-0.0128174
-0.263062	-0.00793457
-0.166016	0.00213623
0.20813	0.0167847
0.787964	0.0308228
1.20758	0.0369263
1.09222	0.0320435
0.507813	0.0228882
-0.194092	0.0186157
-0.774841	0.0158691
-1.01746	0.010376
-0.925293	0.00579834
-0.606995	0.00396729
-0.263062	0.00549316
0.0558472	0.0125122
0.319824	0.0216675
0.415344	0.0292969
0.290833	0.0338745
0.0595093	0.0366211
-0.0497437	0.0360107
0.0784302	0.0341797
