L I	L III	L II(Calc.)
0.00335693	0.0195313	0.0228882
0.00305176	0.0210571	0.0241089
0.00457764	0.0210571	0.0256348
0.00274658	0.020752	0.0234985
-0.00244141	0.0195313	0.0170898
-0.00701904	0.0158691	0.0088501
-0.00793457	0.0106812	0.00274658
-0.00701904	0.00457764	-0.00244141
-0.00640869	-0.00213623	-0.00854492
-0.00976563	-0.00762939	-0.017395
-0.0164795	-0.012207	-0.0286865
-0.0247192	-0.0164795	-0.0411987
-0.032959	-0.0195313	-0.0524902
-0.039978	-0.0219727	-0.0619507
-0.0460815	-0.0222778	-0.0683594
-0.0524902	-0.0204468	-0.072937
-0.0585938	-0.0167847	-0.0753784
-0.062561	-0.0140381	-0.0765991
-0.062561	-0.0140381	-0.0765991
-0.0622559	-0.0125122	-0.0747681
-0.0628662	-0.00946045	-0.0723267
-0.0628662	-0.00610352	-0.0689697
-0.062561	-0.00244141	-0.0650024
-0.0619507	0.000305176	-0.0616455
-0.0616455	0.00183105	-0.0598145
-0.0619507	0.00213623	-0.0598145
-0.0637817	0.00244141	-0.0613403
-0.0653076	0.00213623	-0.0631714
-0.0650024	0.000610352	-0.0643921
-0.0616455	-0.00244141	-0.0640869
-0.0564575	-0.00732422	-0.0637817
-0.0488281	-0.0143433	-0.0631714
-0.038147	-0.0234985	-0.0616455
-0.0302124	-0.0292969	-0.0595093
-0.0296021	-0.027771	-0.057373
-0.0314331	-0.0231934	-0.0546265
-0.0326538	-0.0204468	-0.0531006
-0.0354004	-0.0177002	-0.0531006
-0.0421143	-0.0134277	-0.055542
-0.0497437	-0.00854492	-0.0582886
-0.0537109	-0.00732422	-0.0610352
-0.055542	-0.00915527	-0.0646973
-0.057373	-0.0115967	-0.0689697
-0.0585938	-0.0158691	-0.0744629
-0.0582886	-0.022583	-0.0808716
-0.055542	-0.0308228	-0.0863647
-0.0506592	-0.0393677	-0.0900269
-0.0427246	-0.0482178	-0.0909424
-0.0317383	-0.0552368	-0.0869751
-0.017395	-0.0598145	-0.0772095
-0.0012207	-0.0601196	-0.0613403
0.0177002	-0.0540161	-0.0363159
0.0402832	-0.039978	0.000305176
0.0683594	-0.0170898	0.0512695
0.103455	0.0119019	0.115356
0.143433	0.0457764	0.189209
0.183716	0.0842285	0.267944
0.220337	0.128174	0.348511
0.250549	0.176392	0.426941
0.270386	0.224609	0.494995
0.274658	0.26825	0.542908
0.259094	0.306091	0.565186
0.21759	0.341187	0.558777
0.156555	0.369263	0.525818
0.0872803	0.383301	0.470581
0.012207	0.38269	0.394897
-0.0653076	0.367737	0.302429
-0.137939	0.339355	0.201416
-0.198975	0.300293	0.101318
-0.244751	0.253296	0.00854492
-0.273132	0.202026	-0.071106
-0.281372	0.147095	-0.134277
-0.269165	0.0894165	-0.179749
-0.244446	0.0372314	-0.207214
-0.214844	-0.00427246	-0.219116
-0.179443	-0.039978	-0.219421
-0.141296	-0.0701904	-0.211487
-0.108948	-0.0918579	-0.200806
-0.085144	-0.102539	-0.187683
-0.0689697	-0.101624	-0.170593
-0.0570679	-0.0946045	-0.151672
-0.0485229	-0.0857544	-0.134277
-0.0430298	-0.0769043	-0.119934
-0.0390625	-0.0683594	-0.107422
-0.0350952	-0.06073	-0.0958252
-0.0302124	-0.0549316	-0.085144
-0.027771	-0.0469971	-0.0747681
-0.0302124	-0.0366211	-0.0668335
-0.0332642	-0.027771	-0.0610352
-0.03479	-0.0231934	-0.0579834
-0.0341797	-0.0222778	-0.0564575
-0.0332642	-0.0238037	-0.0570679
-0.0323486	-0.0271606	-0.0595093
-0.0317383	-0.0296021	-0.0613403
-0.0317383	-0.0314331	-0.0631714
-0.0326538	-0.0314331	-0.0640869
-0.0360107	-0.0292969	-0.0653076
-0.0393677	-0.0271606	-0.0665283
-0.0393677	-0.0271606	-0.0665283
-0.0375366	-0.0280762	-0.0656128
-0.0363159	-0.027771	-0.0640869
-0.0350952	-0.0259399	-0.0610352
-0.0338745	-0.0238037	-0.0576782
-0.0314331	-0.0231934	-0.0546265
-0.0274658	-0.0250244	-0.0524902
-0.0210571	-0.0289917	-0.0500488
-0.0152588	-0.032959	-0.0482178
-0.0128174	-0.0341797	-0.0469971
-0.0112915	-0.03479	-0.0460815
-0.0100708	-0.0357056	-0.0457764
-0.010376	-0.0357056	-0.0460815
-0.012207	-0.0344849	-0.0466919
-0.0158691	-0.0314331	-0.0473022
-0.0198364	-0.0274658	-0.0473022
-0.0238037	-0.0234985	-0.0473022
-0.0265503	-0.0210571	-0.0476074
-0.0268555	-0.0198364	-0.0466919
-0.0292969	-0.0158691	-0.045166
-0.0323486	-0.0106812	-0.0430298
-0.0354004	-0.00610352	-0.0415039
-0.0378418	-0.00305176	-0.0408936
-0.0375366	-0.00305176	-0.0405884
-0.0341797	-0.00518799	-0.0393677
-0.0305176	-0.00762939	-0.038147
-0.0289917	-0.0100708	-0.0390625
-0.0283813	-0.0137329	-0.0421143
-0.0247192	-0.0204468	-0.045166
-0.0186157	-0.027771	-0.0463867
-0.012207	-0.0326538	-0.0448608
-0.00579834	-0.0375366	-0.043335
-0.000610352	-0.0415039	-0.0421143
0.000610352	-0.0411987	-0.0405884
-0.00152588	-0.0372314	-0.0387573
-0.00335693	-0.0335693	-0.0369263
-0.00213623	-0.0314331	-0.0335693
0.00152588	-0.0311279	-0.0296021
0.00549316	-0.0320435	-0.0265503
0.00915527	-0.0335693	-0.0244141
0.012207	-0.0363159	-0.0241089
0.0140381	-0.039978	-0.0259399
0.0161743	-0.043335	-0.0271606
0.0195313	-0.0466919	-0.0271606
0.0247192	-0.0500488	-0.0253296
0.0302124	-0.0531006	-0.0228882
0.0350952	-0.055542	-0.0204468
0.0378418	-0.0558472	-0.0180054
0.038147	-0.0527954	-0.0146484
0.0372314	-0.0485229	-0.0112915
0.0384521	-0.0454712	-0.00701904
0.0411987	-0.0442505	-0.00305176
0.0436401	-0.0439453	-0.000305176
0.0457764	-0.0442505	0.00152588
0.0466919	-0.0448608	0.00183105
0.0476074	-0.0454712	0.00213623
0.0512695	-0.0473022	0.00396729
0.0579834	-0.0515747	0.00640869
0.065918	-0.0576782	0.00823975
0.0708008	-0.06073	0.0100708
0.0695801	-0.0576782	0.0119019
0.0683594	-0.0534058	0.0149536
0.0708008	-0.0521851	0.0186157
0.0750732	-0.0521851	0.0228882
0.0787354	-0.0524902	0.0262451
0.0817871	-0.0527954	0.0289917
0.083313	-0.0527954	0.0305176
0.0839233	-0.0524902	0.0314331
0.0866699	-0.0531006	0.0335693
0.0915527	-0.0552368	0.0363159
0.0973511	-0.057373	0.039978
0.101013	-0.0558472	0.045166
0.102539	-0.0537109	0.0488281
0.104065	-0.0527954	0.0512695
0.104065	-0.0506592	0.0534058
0.102234	-0.0463867	0.0558472
0.0985718	-0.0396729	0.0588989
0.0958252	-0.0326538	0.0631714
0.0952148	-0.0271606	0.0680542
0.0949097	-0.0231934	0.0717163
0.0964355	-0.022583	0.0738525
0.100098	-0.0247192	0.0753784
0.104675	-0.0274658	0.0772095
0.108643	-0.0292969	0.0793457
0.110168	-0.0299072	0.0802612
0.109863	-0.0299072	0.0799561
0.108643	-0.0296021	0.0790405
0.108337	-0.0296021	0.0787354
0.107727	-0.0283813	0.0793457
0.10376	-0.0253296	0.0784302
0.0964355	-0.0213623	0.0750732
0.0875854	-0.0167847	0.0708008
0.0784302	-0.0115967	0.0668335
0.0708008	-0.00762939	0.0631714
0.0653076	-0.00610352	0.0592041
0.0601196	-0.00610352	0.0540161
0.0512695	-0.00427246	0.0469971
0.0415039	-0.00244141	0.0390625
0.0311279	-0.0012207	0.0299072
0.0189209	0.000305176	0.0192261
0.00793457	0.000305176	0.00823975
-0.000610352	-0.000915527	-0.00152588
-0.00518799	-0.00366211	-0.0088501
-0.00732422	-0.00671387	-0.0140381
-0.00854492	-0.00976563	-0.0183105
-0.0100708	-0.012207	-0.0222778
-0.0128174	-0.0128174	-0.0256348
-0.0177002	-0.0106812	-0.0283813
-0.0228882	-0.00732422	-0.0302124
-0.0244141	-0.00732422	-0.0317383
-0.022583	-0.0109863	-0.0335693
-0.020752	-0.0146484	-0.0354004
-0.020752	-0.0180054	-0.0387573
-0.0213623	-0.0219727	-0.043335
-0.0210571	-0.0265503	-0.0476074
-0.0219727	-0.0302124	-0.0521851
-0.0228882	-0.0326538	-0.055542
-0.0244141	-0.0338745	-0.0582886
-0.027771	-0.0326538	-0.0604248
-0.0320435	-0.0299072	-0.0619507
-0.0357056	-0.0268555	-0.062561
-0.0393677	-0.0222778	-0.0616455
-0.0454712	-0.0143433	-0.0598145
-0.0534058	-0.00427246	-0.0576782
-0.06073	0.00488281	-0.0558472
-0.0640869	0.010376	-0.0537109
-0.0628662	0.010376	-0.0524902
-0.0576782	0.00671387	-0.0509644
-0.0500488	0	-0.0500488
-0.0418091	-0.00732422	-0.0491333
-0.0363159	-0.012207	-0.0485229
-0.0332642	-0.0146484	-0.0479126
-0.0323486	-0.0146484	-0.0469971
-0.0332642	-0.0131226	-0.0463867
-0.0360107	-0.0100708	-0.0460815
-0.0387573	-0.00793457	-0.0466919
-0.0418091	-0.00640869	-0.0482178
-0.0424194	-0.00457764	-0.0469971
-0.0421143	-0.00152588	-0.0436401
-0.0424194	0.00244141	-0.039978
-0.0430298	0.00518799	-0.0378418
-0.0408936	0.00518799	-0.0357056
-0.0369263	0.00366211	-0.0332642
-0.0320435	0.000305176	-0.0317383
-0.0238037	-0.00549316	-0.0292969
-0.0152588	-0.0112915	-0.0265503
-0.0109863	-0.0146484	-0.0256348
-0.010376	-0.015564	-0.0259399
-0.010376	-0.0167847	-0.0271606
-0.00854492	-0.0213623	-0.0299072
-0.00671387	-0.0262451	-0.032959
-0.00854492	-0.027771	-0.0363159
-0.0137329	-0.0250244	-0.0387573
-0.0180054	-0.0219727	-0.039978
-0.0216675	-0.0192261	-0.0408936
-0.0247192	-0.0170898	-0.0418091
-0.0271606	-0.0152588	-0.0424194
-0.0289917	-0.0134277	-0.0424194
-0.0292969	-0.0119019	-0.0411987
-0.0280762	-0.0119019	-0.039978
-0.0271606	-0.0125122	-0.0396729
-0.0271606	-0.012207	-0.0393677
-0.0265503	-0.0109863	-0.0375366
-0.0234985	-0.012207	-0.0357056
-0.0186157	-0.0158691	-0.0344849
-0.0140381	-0.0204468	-0.0344849
-0.0125122	-0.0234985	-0.0360107
-0.0140381	-0.0247192	-0.0387573
-0.0158691	-0.0250244	-0.0408936
-0.015564	-0.0268555	-0.0424194
-0.0134277	-0.0302124	-0.0436401
-0.0112915	-0.0335693	-0.0448608
-0.0109863	-0.0354004	-0.0463867
-0.0125122	-0.0338745	-0.0463867
-0.0146484	-0.0308228	-0.0454712
-0.015564	-0.0292969	-0.0448608
-0.015564	-0.0292969	-0.0448608
-0.0161743	-0.0286865	-0.0448608
-0.0161743	-0.0280762	-0.0442505
-0.0134277	-0.0302124	-0.0436401
-0.00976563	-0.0344849	-0.0442505
-0.00854492	-0.038147	-0.0466919
-0.00732422	-0.0427246	-0.0500488
-0.00366211	-0.0494385	-0.0531006
0	-0.0552368	-0.0552368
0.00152588	-0.0585938	-0.0570679
-0.000305176	-0.0592041	-0.0595093
-0.00610352	-0.0561523	-0.0622559
-0.0146484	-0.0500488	-0.0646973
-0.0204468	-0.043335	-0.0637817
-0.0247192	-0.0366211	-0.0613403
-0.0296021	-0.0305176	-0.0601196
-0.03479	-0.0259399	-0.06073
-0.0393677	-0.0234985	-0.0628662
-0.0436401	-0.0219727	-0.0656128
-0.0460815	-0.020752	-0.0668335
-0.0445557	-0.0204468	-0.0650024
-0.0424194	-0.020752	-0.0631714
-0.0396729	-0.0231934	-0.0628662
-0.0366211	-0.0271606	-0.0637817
-0.0344849	-0.0296021	-0.0640869
-0.0323486	-0.0317383	-0.0640869
-0.0296021	-0.0335693	-0.0631714
-0.0265503	-0.0360107	-0.062561
-0.0238037	-0.0390625	-0.0628662
-0.0213623	-0.0427246	-0.0640869
-0.0198364	-0.0466919	-0.0665283
-0.0204468	-0.0494385	-0.0698853
-0.0216675	-0.0515747	-0.0732422
-0.0222778	-0.0546265	-0.0769043
-0.0222778	-0.057373	-0.0796509
-0.0238037	-0.0588989	-0.0827026
-0.0250244	-0.0595093	-0.0845337
-0.0231934	-0.0601196	-0.083313
-0.0241089	-0.0570679	-0.0811768
-0.0271606	-0.0527954	-0.0799561
-0.0296021	-0.0500488	-0.0796509
-0.0314331	-0.0473022	-0.0787354
-0.0360107	-0.0421143	-0.078125
-0.0402832	-0.0384521	-0.0787354
-0.0418091	-0.0372314	-0.0790405
-0.0411987	-0.0375366	-0.0787354
-0.0405884	-0.038147	-0.0787354
-0.0402832	-0.039978	-0.0802612
-0.0390625	-0.0424194	-0.0814819
-0.038147	-0.0448608	-0.0830078
-0.0375366	-0.0469971	-0.0845337
-0.0357056	-0.0491333	-0.0848389
-0.0317383	-0.0518799	-0.0836182
-0.027771	-0.0552368	-0.0830078
-0.0256348	-0.0576782	-0.083313
-0.027771	-0.0567627	-0.0845337
-0.0360107	-0.0500488	-0.0860596
-0.0454712	-0.0421143	-0.0875854
-0.050354	-0.0369263	-0.0872803
-0.0527954	-0.0335693	-0.0863647
-0.0558472	-0.0296021	-0.0854492
-0.0579834	-0.0265503	-0.0845337
-0.0576782	-0.0259399	-0.0836182
-0.0576782	-0.0262451	-0.0839233
-0.0585938	-0.0256348	-0.0842285
-0.0576782	-0.0259399	-0.0836182
-0.0543213	-0.0283813	-0.0827026
-0.0491333	-0.032959	-0.0820923
-0.0424194	-0.0396729	-0.0820923
-0.0372314	-0.045166	-0.0823975
-0.0326538	-0.0491333	-0.0817871
-0.0296021	-0.0518799	-0.0814819
-0.0286865	-0.0534058	-0.0820923
-0.0286865	-0.0531006	-0.0817871
-0.0296021	-0.0506592	-0.0802612
-0.0289917	-0.0457764	-0.0747681
-0.0268555	-0.0396729	-0.0665283
-0.0256348	-0.0338745	-0.0595093
-0.0247192	-0.0274658	-0.0521851
-0.0244141	-0.0219727	-0.0463867
-0.0238037	-0.0177002	-0.0415039
-0.0222778	-0.0140381	-0.0363159
-0.0195313	-0.0119019	-0.0314331
-0.0164795	-0.0115967	-0.0280762
-0.0152588	-0.0115967	-0.0268555
-0.0146484	-0.0128174	-0.0274658
-0.0149536	-0.0143433	-0.0292969
-0.0201416	-0.012207	-0.0323486
-0.0280762	-0.00823975	-0.0363159
-0.0305176	-0.00701904	-0.0375366
-0.0308228	-0.00518799	-0.0360107
-0.0317383	-0.000915527	-0.0326538
-0.0320435	0.00274658	-0.0292969
-0.0311279	0.00488281	-0.0262451
-0.0268555	0.00396729	-0.0228882
-0.0195313	-0.000610352	-0.0201416
-0.0109863	-0.00610352	-0.0170898
-0.00305176	-0.0115967	-0.0146484
0.00335693	-0.0161743	-0.0128174
0.00762939	-0.0198364	-0.012207
0.0100708	-0.0228882	-0.0128174
0.0100708	-0.0253296	-0.0152588
0.00823975	-0.0250244	-0.0167847
0.00610352	-0.0234985	-0.017395
0.00396729	-0.0216675	-0.0177002
0.0012207	-0.0192261	-0.0180054
-0.00640869	-0.012207	-0.0186157
-0.0161743	-0.00366211	-0.0198364
-0.0219727	-0.000305176	-0.0222778
-0.0231934	-0.00244141	-0.0256348
-0.020752	-0.00762939	-0.0283813
-0.0180054	-0.0140381	-0.0320435
-0.017395	-0.0210571	-0.0384521
-0.0198364	-0.0274658	-0.0473022
-0.0256348	-0.0314331	-0.0570679
-0.0326538	-0.0357056	-0.0683594
-0.0372314	-0.0402832	-0.0775146
-0.0405884	-0.0442505	-0.0848389
-0.0424194	-0.0488281	-0.0912476
-0.0424194	-0.0540161	-0.0964355
-0.0411987	-0.057373	-0.0985718
-0.0408936	-0.0585938	-0.0994873
-0.0411987	-0.0585938	-0.0997925
-0.0411987	-0.0585938	-0.0997925
-0.0405884	-0.0579834	-0.0985718
-0.0387573	-0.0585938	-0.0973511
-0.0344849	-0.0619507	-0.0964355
-0.0305176	-0.0665283	-0.0970459
-0.0335693	-0.0653076	-0.098877
-0.0430298	-0.0592041	-0.102234
-0.0488281	-0.0564575	-0.105286
-0.050354	-0.0576782	-0.108032
-0.0512695	-0.0592041	-0.110474
-0.0521851	-0.0601196	-0.112305
-0.0518799	-0.0604248	-0.112305
-0.0506592	-0.0595093	-0.110168
-0.0512695	-0.0561523	-0.107422
-0.0512695	-0.0540161	-0.105286
-0.0491333	-0.0552368	-0.10437
-0.0463867	-0.057373	-0.10376
-0.0448608	-0.0576782	-0.102539
-0.0445557	-0.0567627	-0.101318
-0.0439453	-0.0561523	-0.100098
-0.0439453	-0.0561523	-0.100098
-0.045166	-0.0567627	-0.101929
-0.0460815	-0.0588989	-0.10498
-0.0485229	-0.06073	-0.109253
-0.0509644	-0.0634766	-0.114441
-0.0546265	-0.0653076	-0.119934
-0.0601196	-0.0650024	-0.125122
-0.0671387	-0.0650024	-0.132141
-0.0744629	-0.0665283	-0.140991
-0.0793457	-0.0695801	-0.148926
-0.0793457	-0.0738525	-0.153198
-0.0732422	-0.0793457	-0.152588
-0.0616455	-0.0854492	-0.147095
-0.0442505	-0.090332	-0.134583
-0.0228882	-0.090332	-0.11322
0.000915527	-0.0820923	-0.0811768
0.0286865	-0.0650024	-0.0363159
0.0619507	-0.0402832	0.0216675
0.0997925	-0.00946045	0.090332
0.140076	0.0265503	0.166626
0.177307	0.0671387	0.244446
0.209045	0.112915	0.32196
0.233765	0.162354	0.396118
0.248413	0.212097	0.46051
0.248413	0.257874	0.506287
0.230408	0.296936	0.527344
0.194092	0.326233	0.520325
0.141602	0.345459	0.487061
0.0744629	0.35675	0.431213
-0.00213623	0.357361	0.355225
-0.0769043	0.340881	0.263977
-0.145264	0.308228	0.162964
-0.203552	0.263672	0.0601196
-0.248413	0.210876	-0.0375366
-0.274963	0.152283	-0.122681
-0.280151	0.0897217	-0.19043
-0.265808	0.0265503	-0.239258
-0.237732	-0.0314331	-0.269165
-0.200806	-0.0805664	-0.281372
-0.160217	-0.118408	-0.278625
-0.123901	-0.140991	-0.264893
-0.0961304	-0.148926	-0.245056
-0.0744629	-0.147705	-0.222168
-0.0616455	-0.138245	-0.19989
-0.0561523	-0.121155	-0.177307
-0.0540161	-0.101929	-0.155945
-0.0549316	-0.0845337	-0.139465
-0.0576782	-0.0701904	-0.127869
-0.0604248	-0.0604248	-0.12085
-0.0616455	-0.0549316	-0.116577
-0.0598145	-0.0540161	-0.113831
-0.0564575	-0.0558472	-0.112305
-0.0561523	-0.0567627	-0.112915
-0.06073	-0.0534058	-0.114136
-0.0662231	-0.050354	-0.116577
-0.0698853	-0.0494385	-0.119324
-0.0741577	-0.0479126	-0.12207
-0.0793457	-0.0442505	-0.123596
-0.0848389	-0.0390625	-0.123901
-0.0878906	-0.0344849	-0.122375
-0.0860596	-0.0344849	-0.120544
-0.0784302	-0.0408936	-0.119324
-0.0668335	-0.0512695	-0.118103
-0.0558472	-0.0604248	-0.116272
-0.0473022	-0.0671387	-0.114441
-0.0402832	-0.072937	-0.11322
-0.0332642	-0.0787354	-0.112
-0.0283813	-0.0827026	-0.111084
-0.0283813	-0.0817871	-0.110168
-0.0332642	-0.0762939	-0.109558
-0.039978	-0.0686646	-0.108643
-0.0469971	-0.06073	-0.107727
-0.0531006	-0.0531006	-0.106201
-0.0588989	-0.0460815	-0.10498
-0.0653076	-0.039978	-0.105286
-0.0723267	-0.0350952	-0.107422
-0.0793457	-0.0311279	-0.110474
-0.083313	-0.0283813	-0.111694
-0.0823975	-0.0274658	-0.109863
-0.0778198	-0.0289917	-0.106812
-0.0726318	-0.0317383	-0.10437
-0.067749	-0.0338745	-0.101624
-0.062561	-0.0363159	-0.098877
-0.0549316	-0.0396729	-0.0946045
-0.045166	-0.0439453	-0.0891113
-0.03479	-0.0491333	-0.0839233
-0.0244141	-0.0552368	-0.0796509
-0.0170898	-0.06073	-0.0778198
-0.0146484	-0.0637817	-0.0784302
-0.0164795	-0.0634766	-0.0799561
-0.0216675	-0.0601196	-0.0817871
-0.0299072	-0.0558472	-0.0857544
-0.0372314	-0.0518799	-0.0891113
-0.0393677	-0.0488281	-0.0881958
-0.039978	-0.0460815	-0.0860596
-0.0415039	-0.0427246	-0.0842285
-0.0427246	-0.0393677	-0.0820923
-0.0424194	-0.0363159	-0.0787354
-0.0427246	-0.0323486	-0.0750732
-0.0469971	-0.0244141	-0.0714111
-0.0506592	-0.0177002	-0.0683594
-0.0479126	-0.0186157	-0.0665283
-0.0415039	-0.0253296	-0.0668335
-0.0360107	-0.0326538	-0.0686646
-0.0320435	-0.0390625	-0.071106
-0.0259399	-0.0460815	-0.0720215
-0.0143433	-0.057373	-0.0717163
0.000610352	-0.0726318	-0.0720215
0.0112915	-0.0836182	-0.0723267
0.0164795	-0.0872803	-0.0708008
0.0204468	-0.0881958	-0.067749
0.0231934	-0.088501	-0.0653076
0.0228882	-0.0845337	-0.0616455
0.0198364	-0.0765991	-0.0567627
0.0161743	-0.0674438	-0.0512695
0.0128174	-0.0592041	-0.0463867
0.00976563	-0.0524902	-0.0427246
0.00976563	-0.0497437	-0.039978
0.015564	-0.0524902	-0.0369263
0.0262451	-0.0595093	-0.0332642
0.038147	-0.0674438	-0.0292969
0.0488281	-0.0753784	-0.0265503
0.0585938	-0.0830078	-0.0244141
0.0674438	-0.090332	-0.0228882
0.0741577	-0.0958252	-0.0216675
0.078125	-0.0973511	-0.0192261
0.0787354	-0.0961304	-0.017395
0.0765991	-0.0918579	-0.0152588
0.072937	-0.0869751	-0.0140381
0.067749	-0.0805664	-0.0128174
0.0610352	-0.0723267	-0.0112915
0.0552368	-0.0634766	-0.00823975
0.0531006	-0.0561523	-0.00305176
0.0534058	-0.0515747	0.00183105
0.0552368	-0.0485229	0.00671387
0.0582886	-0.0460815	0.012207
0.0631714	-0.0442505	0.0189209
0.0692749	-0.0439453	0.0253296
0.0756836	-0.0454712	0.0302124
0.0842285	-0.0482178	0.0360107
0.0961304	-0.0518799	0.0442505
0.106812	-0.0561523	0.0506592
0.11322	-0.0592041	0.0540161
0.111084	-0.0570679	0.0540161
0.102234	-0.0491333	0.0531006
0.0918579	-0.0384521	0.0534058
0.0836182	-0.0292969	0.0543213
0.0778198	-0.0234985	0.0543213
0.072937	-0.0210571	0.0518799
0.0662231	-0.0183105	0.0479126
0.0604248	-0.0140381	0.0463867
0.0549316	-0.00946045	0.0454712
0.050354	-0.00732422	0.0430298
0.0488281	-0.0100708	0.0387573
0.050354	-0.0164795	0.0338745
0.0512695	-0.0219727	0.0292969
0.0479126	-0.022583	0.0253296
0.0418091	-0.0213623	0.0204468
0.0338745	-0.0192261	0.0146484
0.0256348	-0.0161743	0.00946045
0.0183105	-0.0149536	0.00335693
0.0128174	-0.0158691	-0.00305176
0.00762939	-0.0167847	-0.00915527
0.00244141	-0.017395	-0.0149536
-0.00244141	-0.0180054	-0.0204468
-0.00762939	-0.0186157	-0.0262451
-0.0134277	-0.0192261	-0.0326538
-0.0180054	-0.0213623	-0.0393677
-0.0231934	-0.0231934	-0.0463867
-0.0299072	-0.022583	-0.0524902
-0.0363159	-0.0222778	-0.0585938
-0.0415039	-0.022583	-0.0640869
-0.0466919	-0.0219727	-0.0686646
-0.0531006	-0.0195313	-0.0726318
-0.0595093	-0.0161743	-0.0756836
-0.0628662	-0.0149536	-0.0778198
-0.0634766	-0.0161743	-0.0796509
-0.0631714	-0.0177002	-0.0808716
-0.062561	-0.0192261	-0.0817871
-0.0622559	-0.0213623	-0.0836182
-0.0640869	-0.0222778	-0.0863647
-0.067749	-0.0219727	-0.0897217
-0.0701904	-0.0234985	-0.093689
-0.0732422	-0.0244141	-0.0976563
-0.0769043	-0.0219727	-0.098877
-0.0805664	-0.0164795	-0.0970459
-0.0848389	-0.0100708	-0.0949097
-0.0881958	-0.00518799	-0.0933838
-0.0878906	-0.00396729	-0.0918579
-0.0845337	-0.00396729	-0.088501
-0.0820923	-0.00152588	-0.0836182
-0.0811768	0.00335693	-0.0778198
-0.0796509	0.00701904	-0.0726318
-0.0759888	0.00610352	-0.0698853
-0.0717163	0.00152588	-0.0701904
-0.0668335	-0.00335693	-0.0701904
-0.0610352	-0.00762939	-0.0686646
-0.0570679	-0.0119019	-0.0689697
-0.0537109	-0.0167847	-0.0704956
-0.0497437	-0.0192261	-0.0689697
-0.0460815	-0.0192261	-0.0653076
-0.0405884	-0.0198364	-0.0604248
-0.0363159	-0.0195313	-0.0558472
-0.03479	-0.017395	-0.0521851
-0.0341797	-0.0149536	-0.0491333
-0.0332642	-0.0134277	-0.0466919
-0.032959	-0.0119019	-0.0448608
-0.0335693	-0.0100708	-0.0436401
-0.0354004	-0.00854492	-0.0439453
-0.0378418	-0.00732422	-0.045166
-0.0408936	-0.00671387	-0.0476074
-0.0436401	-0.00610352	-0.0497437
-0.0454712	-0.00549316	-0.0509644
-0.0460815	-0.00640869	-0.0524902
-0.045166	-0.00762939	-0.0527954
-0.045166	-0.00762939	-0.0527954
-0.0460815	-0.00671387	-0.0527954
-0.0485229	-0.00457764	-0.0531006
-0.0515747	-0.00183105	-0.0534058
-0.0527954	-0.000915527	-0.0537109
-0.0518799	-0.00274658	-0.0546265
-0.0500488	-0.00549316	-0.055542
-0.0488281	-0.00793457	-0.0567627
-0.0473022	-0.0106812	-0.0579834
-0.0476074	-0.0112915	-0.0588989
-0.0500488	-0.00915527	-0.0592041
-0.0518799	-0.00701904	-0.0588989
-0.0527954	-0.00610352	-0.0588989
-0.0549316	-0.00457764	-0.0595093
-0.057373	-0.00274658	-0.0601196
-0.0601196	-0.00183105	-0.0619507
-0.065918	0.00213623	-0.0637817
-0.0717163	0.00640869	-0.0653076
-0.0720215	0.00579834	-0.0662231
-0.0680542	0.000305176	-0.067749
-0.062561	-0.00793457	-0.0704956
-0.0564575	-0.0164795	-0.072937
-0.0482178	-0.0247192	-0.072937
-0.0402832	-0.0317383	-0.0720215
-0.0338745	-0.0369263	-0.0708008
-0.0296021	-0.0408936	-0.0704956
-0.0262451	-0.0445557	-0.0708008
-0.0241089	-0.0479126	-0.0720215
-0.0256348	-0.0473022	-0.072937
-0.0305176	-0.0430298	-0.0735474
-0.0369263	-0.0372314	-0.0741577
-0.0448608	-0.0317383	-0.0765991
-0.0521851	-0.0286865	-0.0808716
-0.055542	-0.0283813	-0.0839233
-0.0534058	-0.0308228	-0.0842285
-0.050354	-0.0323486	-0.0827026
-0.0485229	-0.0320435	-0.0805664
-0.0466919	-0.0314331	-0.078125
-0.045166	-0.0317383	-0.0769043
-0.0427246	-0.0335693	-0.0762939
-0.0393677	-0.0357056	-0.0750732
-0.0350952	-0.0375366	-0.0726318
-0.0326538	-0.0384521	-0.071106
-0.0323486	-0.039978	-0.0723267
-0.032959	-0.0424194	-0.0753784
-0.0338745	-0.0460815	-0.0799561
-0.0360107	-0.0485229	-0.0845337
-0.0402832	-0.0482178	-0.088501
-0.045166	-0.0454712	-0.0906372
-0.0479126	-0.0439453	-0.0918579
-0.0482178	-0.0445557	-0.0927734
-0.0488281	-0.045166	-0.0939941
-0.0521851	-0.0430298	-0.0952148
-0.057373	-0.0390625	-0.0964355
-0.0619507	-0.0341797	-0.0961304
-0.0631714	-0.0311279	-0.0942993
-0.0616455	-0.0308228	-0.0924683
-0.0592041	-0.032959	-0.0921631
-0.0549316	-0.0372314	-0.0921631
-0.0506592	-0.0415039	-0.0921631
-0.0482178	-0.0439453	-0.0921631
-0.0463867	-0.0457764	-0.0921631
-0.0457764	-0.0463867	-0.0921631
-0.0518799	-0.0405884	-0.0924683
-0.0616455	-0.0314331	-0.0930786
-0.0680542	-0.0259399	-0.0939941
-0.0714111	-0.0234985	-0.0949097
-0.0735474	-0.022583	-0.0961304
-0.0753784	-0.0219727	-0.0973511
-0.0772095	-0.020752	-0.0979614
-0.0762939	-0.0210571	-0.0973511
-0.0698853	-0.0259399	-0.0958252
-0.0595093	-0.0344849	-0.0939941
-0.0500488	-0.0421143	-0.0921631
-0.0436401	-0.0479126	-0.0915527
-0.0402832	-0.0518799	-0.0921631
-0.0384521	-0.0546265	-0.0930786
-0.0384521	-0.0558472	-0.0942993
-0.0405884	-0.0552368	-0.0958252
-0.043335	-0.0531006	-0.0964355
-0.0457764	-0.0500488	-0.0958252
-0.0479126	-0.0469971	-0.0949097
-0.0518799	-0.0424194	-0.0942993
-0.0564575	-0.0378418	-0.0942993
-0.0579834	-0.0350952	-0.0930786
-0.0546265	-0.0360107	-0.0906372
-0.0488281	-0.0387573	-0.0875854
-0.0430298	-0.0415039	-0.0845337
-0.0405884	-0.0418091	-0.0823975
-0.0415039	-0.0405884	-0.0820923
-0.0424194	-0.0402832	-0.0827026
-0.0396729	-0.0418091	-0.0814819
-0.0357056	-0.0442505	-0.0799561
-0.0357056	-0.045166	-0.0808716
-0.0387573	-0.045166	-0.0839233
-0.0405884	-0.0448608	-0.0854492
-0.0390625	-0.0457764	-0.0848389
-0.0369263	-0.0473022	-0.0842285
-0.0387573	-0.0448608	-0.0836182
-0.0463867	-0.0360107	-0.0823975
-0.0537109	-0.0274658	-0.0811768
-0.057373	-0.0219727	-0.0793457
-0.0601196	-0.0167847	-0.0769043
-0.0622559	-0.0112915	-0.0735474
-0.0631714	-0.00671387	-0.0698853
-0.0631714	-0.00213623	-0.0653076
-0.0628662	0.00152588	-0.0613403
-0.0628662	0.00457764	-0.0582886
-0.0628662	0.00640869	-0.0564575
-0.0628662	0.00823975	-0.0546265
-0.0634766	0.010376	-0.0531006
-0.0613403	0.0100708	-0.0512695
-0.057373	0.00701904	-0.050354
-0.0527954	0.00396729	-0.0488281
-0.0473022	0.000915527	-0.0463867
-0.0408936	-0.00213623	-0.0430298
-0.0341797	-0.00518799	-0.0393677
-0.0286865	-0.00671387	-0.0354004
-0.0231934	-0.00823975	-0.0314331
-0.0146484	-0.0125122	-0.0271606
-0.00549316	-0.0180054	-0.0234985
0.000915527	-0.0216675	-0.020752
0.00274658	-0.0219727	-0.0192261
0.00244141	-0.0210571	-0.0186157
0.00213623	-0.0201416	-0.0180054
0.00183105	-0.0189209	-0.0170898
0.0012207	-0.0180054	-0.0167847
0.0012207	-0.017395	-0.0161743
0.00244141	-0.0170898	-0.0146484
0.00549316	-0.0186157	-0.0131226
0.0088501	-0.0213623	-0.0125122
0.0106812	-0.0231934	-0.0125122
0.0109863	-0.0244141	-0.0134277
0.00976563	-0.0250244	-0.0152588
0.00671387	-0.0238037	-0.0170898
0.00427246	-0.0219727	-0.0177002
0.00305176	-0.0219727	-0.0189209
-0.00183105	-0.0210571	-0.0228882
-0.0119019	-0.0189209	-0.0308228
-0.0222778	-0.0170898	-0.0393677
-0.0283813	-0.0164795	-0.0448608
-0.0302124	-0.017395	-0.0476074
-0.0305176	-0.0201416	-0.0506592
-0.0311279	-0.022583	-0.0537109
-0.0323486	-0.0256348	-0.0579834
-0.0344849	-0.0292969	-0.0637817
-0.0390625	-0.0311279	-0.0701904
-0.043335	-0.0314331	-0.0747681
-0.043335	-0.0341797	-0.0775146
-0.0424194	-0.0390625	-0.0814819
-0.0424194	-0.0436401	-0.0860596
-0.0439453	-0.0473022	-0.0912476
-0.0473022	-0.0491333	-0.0964355
-0.050354	-0.0494385	-0.0997925
-0.0512695	-0.0506592	-0.101929
-0.0494385	-0.0543213	-0.10376
-0.0469971	-0.0585938	-0.105591
-0.045166	-0.0613403	-0.106506
-0.0430298	-0.062561	-0.105591
-0.0415039	-0.0619507	-0.103455
-0.0411987	-0.0610352	-0.102234
-0.0430298	-0.0588989	-0.101929
-0.0454712	-0.0561523	-0.101624
-0.0473022	-0.0537109	-0.101013
-0.0485229	-0.0518799	-0.100403
-0.0488281	-0.0512695	-0.100098
-0.0488281	-0.0515747	-0.100403
-0.0491333	-0.0518799	-0.101013
-0.0485229	-0.0531006	-0.101624
-0.0460815	-0.0552368	-0.101318
-0.0427246	-0.0582886	-0.101013
-0.0393677	-0.0613403	-0.100708
-0.038147	-0.0628662	-0.101013
-0.0402832	-0.0622559	-0.102539
-0.0448608	-0.0604248	-0.105286
-0.0509644	-0.0576782	-0.108643
-0.0570679	-0.0546265	-0.111694
-0.0619507	-0.0537109	-0.115662
-0.0662231	-0.0540161	-0.120239
-0.0704956	-0.055542	-0.126038
-0.072937	-0.0585938	-0.131531
-0.0695801	-0.0643921	-0.133972
-0.0588989	-0.0735474	-0.132446
-0.043335	-0.0814819	-0.124817
-0.0274658	-0.0842285	-0.111694
-0.0088501	-0.0820923	-0.0909424
0.0146484	-0.0735474	-0.0588989
0.045166	-0.0567627	-0.0115967
0.083313	-0.032959	0.050354
0.126953	-0.00366211	0.123291
0.171204	0.0320435	0.203247
0.212097	0.0720215	0.284119
0.246582	0.114746	0.361328
0.272217	0.159607	0.431824
0.28656	0.203247	0.489807
0.283508	0.242615	0.526123
0.257568	0.276794	0.534363
0.20813	0.306396	0.514526
0.138245	0.332031	0.470276
0.057373	0.346375	0.403748
-0.0222778	0.341492	0.319214
-0.0952148	0.319214	0.223999
-0.162048	0.28656	0.124512
-0.21698	0.244751	0.027771
-0.254211	0.195007	-0.0592041
-0.270386	0.13916	-0.131226
-0.265198	0.0787354	-0.186462
-0.239258	0.0152588	-0.223999
-0.2005	-0.0445557	-0.245056
-0.160217	-0.0906372	-0.250854
-0.124207	-0.121155	-0.245361
-0.0942993	-0.138245	-0.232544
-0.0708008	-0.144043	-0.214844
-0.0546265	-0.140381	-0.195007
-0.045166	-0.1297	-0.174866
-0.0424194	-0.114746	-0.157166
-0.0430298	-0.0979614	-0.140991
-0.045166	-0.0820923	-0.127258
-0.0491333	-0.067749	-0.116882
-0.0543213	-0.055542	-0.109863
-0.0592041	-0.045166	-0.10437
-0.0610352	-0.0393677	-0.100403
-0.0588989	-0.038147	-0.0970459
-0.0549316	-0.0402832	-0.0952148
-0.050354	-0.0436401	-0.0939941
-0.0476074	-0.0460815	-0.093689
-0.0439453	-0.0497437	-0.093689
-0.0390625	-0.0537109	-0.0927734
-0.0372314	-0.0540161	-0.0912476
-0.0384521	-0.0515747	-0.0900269
-0.038147	-0.050354	-0.088501
-0.0354004	-0.0491333	-0.0845337
-0.0323486	-0.0473022	-0.0796509
-0.0308228	-0.0442505	-0.0750732
-0.0302124	-0.0408936	-0.071106
-0.0289917	-0.0378418	-0.0668335
-0.027771	-0.03479	-0.062561
-0.0299072	-0.0289917	-0.0588989
-0.0335693	-0.0231934	-0.0567627
-0.0344849	-0.0216675	-0.0561523
-0.0326538	-0.0244141	-0.0570679
-0.0323486	-0.0268555	-0.0592041
-0.0357056	-0.0259399	-0.0616455
-0.0378418	-0.0253296	-0.0631714
-0.0384521	-0.0262451	-0.0646973
-0.0378418	-0.0292969	-0.0671387
-0.0332642	-0.0344849	-0.067749
-0.027771	-0.0387573	-0.0665283
-0.0283813	-0.0369263	-0.0653076
-0.0308228	-0.0335693	-0.0643921
-0.0289917	-0.0338745	-0.0628662
-0.0238037	-0.0369263	-0.06073
-0.0170898	-0.0396729	-0.0567627
-0.0128174	-0.039978	-0.0527954
-0.0115967	-0.0390625	-0.0506592
-0.010376	-0.0387573	-0.0491333
-0.00762939	-0.039978	-0.0476074
-0.00396729	-0.0427246	-0.0466919
0.000610352	-0.0469971	-0.0463867
0.00396729	-0.0500488	-0.0460815
0.00335693	-0.050354	-0.0469971
0.000915527	-0.0485229	-0.0476074
-0.00335693	-0.045166	-0.0485229
-0.00854492	-0.0415039	-0.0500488
-0.0137329	-0.0378418	-0.0515747
-0.0180054	-0.0341797	-0.0521851
-0.0192261	-0.0320435	-0.0512695
-0.0170898	-0.032959	-0.0500488
-0.0131226	-0.0357056	-0.0488281
-0.00823975	-0.0390625	-0.0473022
-0.00274658	-0.043335	-0.0460815
0.00152588	-0.0479126	-0.0463867
0.00427246	-0.0521851	-0.0479126
0.00854492	-0.0546265	-0.0460815
0.0149536	-0.0552368	-0.0402832
0.0201416	-0.0546265	-0.0344849
0.0250244	-0.055542	-0.0305176
0.0292969	-0.0570679	-0.027771
0.0311279	-0.0558472	-0.0247192
0.0308228	-0.0521851	-0.0213623
0.0302124	-0.0482178	-0.0180054
0.0280762	-0.0436401	-0.015564
0.0268555	-0.039978	-0.0131226
0.0286865	-0.0402832	-0.0115967
0.0323486	-0.0427246	-0.010376
0.0341797	-0.0427246	-0.00854492
0.0338745	-0.0415039	-0.00762939
0.0372314	-0.0439453	-0.00671387
0.0466919	-0.0509644	-0.00427246
0.0582886	-0.0592041	-0.000915527
0.0683594	-0.0643921	0.00396729
0.0750732	-0.0662231	0.0088501
0.0799561	-0.0671387	0.0128174
0.0860596	-0.0698853	0.0161743
0.0921631	-0.0741577	0.0180054
0.0961304	-0.0762939	0.0198364
0.0982666	-0.0753784	0.0228882
0.0973511	-0.0708008	0.0265503
0.0946045	-0.0653076	0.0292969
0.0927734	-0.0610352	0.0317383
0.0946045	-0.0592041	0.0354004
0.0994873	-0.0595093	0.039978
0.101624	-0.057373	0.0442505
0.0997925	-0.0521851	0.0476074
0.101013	-0.0491333	0.0518799
0.108643	-0.0506592	0.0579834
0.117798	-0.0546265	0.0631714
0.125732	-0.0585938	0.0671387
0.131836	-0.0613403	0.0704956
0.137634	-0.0631714	0.0744629
0.144043	-0.0656128	0.0784302
0.150757	-0.0683594	0.0823975
0.155029	-0.0689697	0.0860596
0.157166	-0.0686646	0.088501
0.158997	-0.0683594	0.0906372
0.159607	-0.0674438	0.0921631
0.15564	-0.0646973	0.0909424
0.145264	-0.0576782	0.0875854
0.134277	-0.0494385	0.0848389
0.125427	-0.0408936	0.0845337
0.118713	-0.0332642	0.0854492
0.111694	-0.0250244	0.0866699
0.10376	-0.0170898	0.0866699
0.0970459	-0.010376	0.0866699
0.0924683	-0.00549316	0.0869751
0.0894165	-0.00183105	0.0875854
0.0872803	0.000610352	0.0878906
0.0860596	0.000915527	0.0869751
0.085144	-0.000915527	0.0842285
0.0814819	-0.00152588	0.0799561
0.0732422	0.000305176	0.0735474
0.0637817	0.00183105	0.0656128
0.0549316	0.0012207	0.0561523
0.0454712	0.000915527	0.0463867
0.0357056	0.0012207	0.0369263
0.0274658	0.0012207	0.0286865
0.0210571	-0.000305176	0.020752
0.0143433	-0.000915527	0.0134277
0.00732422	-0.00183105	0.00549316
0.00305176	-0.00488281	-0.00183105
0.00213623	-0.0100708	-0.00793457
0.00518799	-0.0170898	-0.0119019
0.010376	-0.0247192	-0.0143433
0.0134277	-0.0305176	-0.0170898
0.0088501	-0.0292969	-0.0204468
-0.000305176	-0.0234985	-0.0238037
-0.0115967	-0.0164795	-0.0280762
-0.0228882	-0.00946045	-0.0323486
-0.0317383	-0.00366211	-0.0354004
-0.0378418	0.000915527	-0.0369263
-0.0408936	0.00335693	-0.0375366
-0.0436401	0.00427246	-0.0393677
-0.0463867	0.00366211	-0.0427246
-0.0469971	0.000610352	-0.0463867
-0.043335	-0.00457764	-0.0479126
-0.0366211	-0.0112915	-0.0479126
-0.0283813	-0.0189209	-0.0473022
-0.0210571	-0.0265503	-0.0476074
-0.0152588	-0.0326538	-0.0479126
-0.0115967	-0.0366211	-0.0482178
-0.0112915	-0.0378418	-0.0491333
-0.0146484	-0.0354004	-0.0500488
-0.0198364	-0.0311279	-0.0509644
-0.0247192	-0.0262451	-0.0509644
-0.0283813	-0.0210571	-0.0494385
-0.0314331	-0.0161743	-0.0476074
-0.0332642	-0.0112915	-0.0445557
-0.0335693	-0.00610352	-0.0396729
-0.032959	-0.000915527	-0.0338745
-0.0308228	0.00244141	-0.0283813
-0.0271606	0.00305176	-0.0241089
-0.0216675	0.000915527	-0.020752
-0.0137329	-0.00366211	-0.017395
-0.00457764	-0.0088501	-0.0134277
0.0012207	-0.0119019	-0.0106812
0.00457764	-0.0143433	-0.00976563
0.00732422	-0.0177002	-0.010376
0.010376	-0.0210571	-0.0106812
0.0125122	-0.022583	-0.0100708
0.012207	-0.0228882	-0.0106812
0.0100708	-0.0219727	-0.0119019
0.00671387	-0.0195313	-0.0128174
0.00152588	-0.0143433	-0.0128174
-0.00549316	-0.00732422	-0.0128174
-0.010376	-0.00274658	-0.0131226
-0.015564	0.00183105	-0.0137329
-0.022583	0.00671387	-0.0158691
-0.0259399	0.00823975	-0.0177002
-0.0247192	0.00488281	-0.0198364
-0.0210571	-0.000610352	-0.0216675
-0.0183105	-0.00549316	-0.0238037
-0.0177002	-0.00762939	-0.0253296
-0.0158691	-0.0100708	-0.0259399
-0.0106812	-0.0152588	-0.0259399
-0.00366211	-0.0216675	-0.0253296
0.000610352	-0.0262451	-0.0256348
0.0012207	-0.027771	-0.0265503
0.000305176	-0.0283813	-0.0280762
-0.0012207	-0.0280762	-0.0292969
-0.00335693	-0.0271606	-0.0305176
-0.00457764	-0.0259399	-0.0305176
-0.00610352	-0.0244141	-0.0305176
-0.00854492	-0.022583	-0.0311279
-0.010376	-0.0216675	-0.0320435
-0.010376	-0.0228882	-0.0332642
-0.00976563	-0.0241089	-0.0338745
-0.0088501	-0.0253296	-0.0341797
-0.00671387	-0.027771	-0.0344849
-0.00457764	-0.0299072	-0.0344849
-0.00335693	-0.0320435	-0.0354004
-0.00213623	-0.0341797	-0.0363159
-0.000610352	-0.0363159	-0.0369263
0.000305176	-0.0387573	-0.0384521
0	-0.0411987	-0.0411987
-0.000610352	-0.043335	-0.0439453
-0.000915527	-0.0442505	-0.045166
-0.0012207	-0.0439453	-0.045166
-0.00366211	-0.0427246	-0.0463867
-0.00640869	-0.0411987	-0.0476074
-0.00793457	-0.0396729	-0.0476074
-0.00915527	-0.0375366	-0.0466919
-0.0106812	-0.0357056	-0.0463867
-0.0119019	-0.03479	-0.0466919
-0.0137329	-0.0332642	-0.0469971
-0.0158691	-0.0311279	-0.0469971
-0.0180054	-0.0289917	-0.0469971
-0.0192261	-0.0283813	-0.0476074
-0.0189209	-0.0289917	-0.0479126
-0.0210571	-0.027771	-0.0488281
-0.0262451	-0.0250244	-0.0512695
-0.0299072	-0.0250244	-0.0549316
-0.0299072	-0.0274658	-0.057373
-0.0265503	-0.0320435	-0.0585938
-0.0250244	-0.0344849	-0.0595093
-0.0262451	-0.03479	-0.0610352
-0.027771	-0.0350952	-0.0628662
-0.0289917	-0.0344849	-0.0634766
-0.0317383	-0.0314331	-0.0631714
-0.0357056	-0.0271606	-0.0628662
-0.0393677	-0.0244141	-0.0637817
-0.0408936	-0.0244141	-0.0653076
-0.038147	-0.0259399	-0.0640869
-0.0332642	-0.0280762	-0.0613403
-0.0283813	-0.0314331	-0.0598145
-0.0244141	-0.0360107	-0.0604248
-0.0192261	-0.0415039	-0.06073
-0.012207	-0.0473022	-0.0595093
-0.00518799	-0.0527954	-0.0579834
0.000915527	-0.057373	-0.0564575
0.00427246	-0.0601196	-0.0558472
0.00335693	-0.0595093	-0.0561523
-0.00213623	-0.0564575	-0.0585938
-0.00946045	-0.0515747	-0.0610352
-0.0177002	-0.0445557	-0.0622559
-0.0256348	-0.0378418	-0.0634766
-0.0320435	-0.0332642	-0.0653076
-0.0363159	-0.0311279	-0.0674438
-0.0384521	-0.0308228	-0.0692749
-0.0396729	-0.0308228	-0.0704956
-0.0415039	-0.0299072	-0.0714111
-0.0427246	-0.0292969	-0.0720215
-0.0418091	-0.0308228	-0.0726318
-0.0415039	-0.0323486	-0.0738525
-0.0427246	-0.0326538	-0.0753784
-0.0463867	-0.0308228	-0.0772095
-0.0500488	-0.0292969	-0.0793457
-0.0515747	-0.0296021	-0.0811768
-0.0524902	-0.0305176	-0.0830078
-0.0558472	-0.0286865	-0.0845337
-0.06073	-0.0250244	-0.0857544
-0.0646973	-0.0216675	-0.0863647
-0.0668335	-0.0195313	-0.0863647
-0.0650024	-0.020752	-0.0857544
-0.0595093	-0.0256348	-0.085144
-0.0552368	-0.0302124	-0.0854492
-0.0558472	-0.0296021	-0.0854492
-0.0592041	-0.0244141	-0.0836182
-0.0616455	-0.0201416	-0.0817871
-0.0588989	-0.020752	-0.0796509
-0.0531006	-0.0247192	-0.0778198
-0.0479126	-0.0286865	-0.0765991
-0.0448608	-0.0305176	-0.0753784
-0.0448608	-0.0296021	-0.0744629
-0.0460815	-0.0280762	-0.0741577
-0.0457764	-0.0286865	-0.0744629
-0.0430298	-0.0314331	-0.0744629
-0.0408936	-0.03479	-0.0756836
-0.0396729	-0.0366211	-0.0762939
-0.038147	-0.0372314	-0.0753784
-0.0387573	-0.0350952	-0.0738525
-0.0427246	-0.0292969	-0.0720215
-0.0469971	-0.0228882	-0.0698853
-0.0491333	-0.0167847	-0.065918
-0.0500488	-0.0109863	-0.0610352
-0.0500488	-0.00518799	-0.0552368
-0.0479126	-0.00152588	-0.0494385
-0.0439453	-0.000915527	-0.0448608
-0.0390625	-0.00183105	-0.0408936
-0.0366211	-0.00274658	-0.0393677
-0.0372314	-0.00244141	-0.0396729
-0.0378418	-0.00244141	-0.0402832
-0.0366211	-0.00274658	-0.0393677
-0.0344849	-0.00396729	-0.0384521
-0.0326538	-0.00518799	-0.0378418
-0.032959	-0.00366211	-0.0366211
-0.0357056	0	-0.0357056
-0.0387573	0.00488281	-0.0338745
-0.039978	0.00854492	-0.0314331
-0.0387573	0.0109863	-0.027771
-0.0357056	0.0125122	-0.0231934
-0.0317383	0.0131226	-0.0186157
-0.0280762	0.0134277	-0.0146484
-0.0244141	0.0115967	-0.0128174
-0.020752	0.0088501	-0.0119019
-0.0164795	0.00457764	-0.0119019
-0.0112915	-0.000915527	-0.012207
-0.00549316	-0.00610352	-0.0115967
0.000305176	-0.010376	-0.0100708
0.00610352	-0.0152588	-0.00915527
0.0106812	-0.0195313	-0.0088501
0.0109863	-0.0195313	-0.00854492
0.00793457	-0.0161743	-0.00823975
0.00579834	-0.0140381	-0.00823975
0.00549316	-0.0131226	-0.00762939
0.00610352	-0.0131226	-0.00701904
0.00610352	-0.0125122	-0.00640869
0.00457764	-0.0119019	-0.00732422
0.00335693	-0.0128174	-0.00946045
0.00335693	-0.0158691	-0.0125122
0.00213623	-0.0192261	-0.0170898
0.00183105	-0.0238037	-0.0219727
0.00152588	-0.0283813	-0.0268555
-0.000915527	-0.0326538	-0.0335693
-0.00610352	-0.0354004	-0.0415039
-0.0109863	-0.0369263	-0.0479126
-0.0161743	-0.0375366	-0.0537109
-0.0231934	-0.038147	-0.0613403
-0.0314331	-0.0378418	-0.0692749
-0.0393677	-0.0378418	-0.0772095
-0.0463867	-0.0384521	-0.0848389
-0.0534058	-0.0387573	-0.0921631
-0.0585938	-0.039978	-0.0985718
-0.0613403	-0.0418091	-0.103149
-0.06073	-0.0445557	-0.105286
-0.0582886	-0.0476074	-0.105896
-0.057373	-0.0500488	-0.107422
-0.0588989	-0.0494385	-0.108337
-0.0610352	-0.0457764	-0.106812
-0.0610352	-0.0415039	-0.102539
-0.06073	-0.0384521	-0.0991821
-0.0592041	-0.038147	-0.0973511
-0.0552368	-0.0405884	-0.0958252
-0.055542	-0.0390625	-0.0946045
-0.0622559	-0.0311279	-0.0933838
-0.0695801	-0.0241089	-0.093689
-0.0714111	-0.0238037	-0.0952148
-0.0698853	-0.0283813	-0.0982666
-0.065918	-0.0338745	-0.0997925
-0.0604248	-0.0390625	-0.0994873
-0.0540161	-0.0439453	-0.0979614
-0.0473022	-0.0491333	-0.0964355
-0.0405884	-0.0540161	-0.0946045
-0.032959	-0.0592041	-0.0921631
-0.0247192	-0.0646973	-0.0894165
-0.0186157	-0.0692749	-0.0878906
-0.0186157	-0.0704956	-0.0891113
-0.0234985	-0.0686646	-0.0921631
-0.0314331	-0.0640869	-0.09552
-0.0411987	-0.057373	-0.0985718
-0.0485229	-0.0515747	-0.100098
-0.0531006	-0.0488281	-0.101929
-0.0579834	-0.0473022	-0.105286
-0.0610352	-0.0473022	-0.108337
-0.0576782	-0.0491333	-0.106812
-0.0469971	-0.0527954	-0.0997925
-0.0296021	-0.0558472	-0.0854492
-0.00732422	-0.0561523	-0.0634766
0.0183105	-0.0518799	-0.0335693
0.0448608	-0.0393677	0.00549316
0.0762939	-0.0192261	0.0570679
0.116577	0.00579834	0.122375
0.163269	0.0344849	0.197754
0.210876	0.065918	0.276794
0.252686	0.101929	0.354614
0.283813	0.144043	0.427856
0.301208	0.189819	0.491028
0.302429	0.233765	0.536194
0.284729	0.271912	0.556641
0.244446	0.304871	0.549316
0.183411	0.331421	0.514832
0.108643	0.34729	0.455933
0.0274658	0.349121	0.376587
-0.0552368	0.338745	0.283508
-0.133667	0.317383	0.183716
-0.200806	0.283508	0.0827026
-0.249939	0.238342	-0.0115967
-0.275879	0.183716	-0.0921631
-0.27771	0.122986	-0.154724
-0.262146	0.0613403	-0.200806
-0.236816	0.00762939	-0.229187
-0.204773	-0.0366211	-0.241394
-0.169983	-0.0689697	-0.238953
-0.137939	-0.0891113	-0.227051
-0.109863	-0.0991821	-0.209045
-0.0894165	-0.0997925	-0.189209
-0.0765991	-0.0918579	-0.168457
-0.0674438	-0.0799561	-0.1474
-0.0588989	-0.0683594	-0.127258
-0.0506592	-0.0588989	-0.109558
-0.045166	-0.0506592	-0.0958252
-0.0418091	-0.0448608	-0.0866699
-0.038147	-0.0427246	-0.0808716
-0.0354004	-0.0418091	-0.0772095
-0.0344849	-0.0411987	-0.0756836
-0.03479	-0.0415039	-0.0762939
-0.0372314	-0.0411987	-0.0784302
-0.0427246	-0.0384521	-0.0811768
-0.0485229	-0.0341797	-0.0827026
-0.0540161	-0.0292969	-0.083313
-0.0585938	-0.0250244	-0.0836182
-0.0610352	-0.0228882	-0.0839233
-0.0595093	-0.0238037	-0.083313
-0.0543213	-0.0256348	-0.0799561
-0.0466919	-0.0280762	-0.0747681
-0.0366211	-0.0314331	-0.0680542
-0.0256348	-0.0366211	-0.0622559
-0.0170898	-0.0408936	-0.0579834
-0.012207	-0.0436401	-0.0558472
-0.00946045	-0.0454712	-0.0549316
-0.00793457	-0.0463867	-0.0543213
-0.00793457	-0.0457764	-0.0537109
-0.010376	-0.043335	-0.0537109
-0.0143433	-0.039978	-0.0543213
-0.0186157	-0.0357056	-0.0543213
-0.0228882	-0.0317383	-0.0546265
-0.0268555	-0.0280762	-0.0549316
-0.0311279	-0.0238037	-0.0549316
-0.0320435	-0.0210571	-0.0531006
-0.0286865	-0.0204468	-0.0491333
-0.0253296	-0.0198364	-0.045166
-0.0250244	-0.0189209	-0.0439453
-0.0253296	-0.0177002	-0.0430298
-0.0265503	-0.0161743	-0.0427246
-0.0283813	-0.0137329	-0.0421143
-0.0289917	-0.0125122	-0.0415039
-0.0271606	-0.0143433	-0.0415039
-0.0238037	-0.0186157	-0.0424194
-0.0210571	-0.022583	-0.0436401
-0.0170898	-0.0274658	-0.0445557
-0.0161743	-0.0283813	-0.0445557
-0.0210571	-0.0231934	-0.0442505
-0.0238037	-0.0198364	-0.0436401
-0.0210571	-0.0216675	-0.0427246
-0.0167847	-0.0244141	-0.0411987
-0.0140381	-0.0256348	-0.0396729
-0.0131226	-0.0250244	-0.038147
-0.0131226	-0.0234985	-0.0366211
-0.012207	-0.0222778	-0.0344849
-0.00946045	-0.0234985	-0.032959
-0.00183105	-0.0286865	-0.0305176
0.00915527	-0.0357056	-0.0265503
0.0164795	-0.0408936	-0.0244141
0.0189209	-0.0421143	-0.0231934
0.0189209	-0.0408936	-0.0219727
0.0201416	-0.039978	-0.0198364
0.0213623	-0.0390625	-0.0177002
0.0198364	-0.0366211	-0.0167847
0.0149536	-0.0326538	-0.0177002
0.0106812	-0.0296021	-0.0189209
0.00762939	-0.0280762	-0.0204468
0.00701904	-0.0283813	-0.0213623
0.0115967	-0.0314331	-0.0198364
0.017395	-0.0341797	-0.0167847
0.0198364	-0.0332642	-0.0134277
0.0210571	-0.0311279	-0.0100708
0.0250244	-0.0317383	-0.00671387
0.0326538	-0.0344849	-0.00183105
0.0436401	-0.038147	0.00549316
0.0531006	-0.0402832	0.0128174
0.0601196	-0.0415039	0.0186157
0.0650024	-0.0418091	0.0231934
0.0698853	-0.0424194	0.0274658
0.0741577	-0.0439453	0.0302124
0.0769043	-0.0463867	0.0305176
0.0802612	-0.0500488	0.0302124
0.0857544	-0.0540161	0.0317383
0.0909424	-0.0561523	0.03479
0.0942993	-0.055542	0.0387573
0.0964355	-0.0543213	0.0421143
0.0982666	-0.0534058	0.0448608
0.101929	-0.0531006	0.0488281
0.106812	-0.0527954	0.0540161
0.112305	-0.0524902	0.0598145
0.120239	-0.0552368	0.0650024
0.129089	-0.0595093	0.0695801
0.136414	-0.0631714	0.0732422
0.141907	-0.065918	0.0759888
0.145264	-0.0674438	0.0778198
0.146179	-0.0662231	0.0799561
0.144348	-0.0613403	0.0830078
0.140991	-0.0552368	0.0857544
0.137634	-0.0488281	0.0888062
0.133057	-0.0411987	0.0918579
0.126648	-0.0314331	0.0952148
0.12146	-0.0219727	0.0994873
0.115967	-0.0128174	0.103149
0.109558	-0.00305176	0.106506
0.104065	0.00457764	0.108643
0.103149	0.00671387	0.109863
0.105286	0.00457764	0.109863
0.106812	0.000610352	0.107422
0.106201	-0.00274658	0.103455
0.106812	-0.00549316	0.101318
0.108948	-0.00793457	0.101013
0.109863	-0.00976563	0.100098
0.108948	-0.010376	0.0985718
0.106506	-0.00976563	0.0967407
0.102844	-0.00793457	0.0949097
0.0979614	-0.00396729	0.0939941
0.0909424	0.0012207	0.0921631
0.0827026	0.00701904	0.0897217
0.0732422	0.0128174	0.0860596
0.0628662	0.0167847	0.0796509
0.0518799	0.0192261	0.071106
0.0427246	0.0201416	0.0628662
0.0378418	0.0186157	0.0564575
0.0350952	0.0152588	0.050354
0.0320435	0.0119019	0.0439453
0.0283813	0.00915527	0.0375366
0.0231934	0.00915527	0.0323486
0.0177002	0.0106812	0.0283813
0.0146484	0.0106812	0.0253296
0.0143433	0.00823975	0.022583
0.0143433	0.00518799	0.0195313
0.0112915	0.00427246	0.015564
0.00427246	0.00610352	0.010376
-0.00701904	0.0119019	0.00488281
-0.0204468	0.0201416	-0.000305176
-0.0305176	0.0259399	-0.00457764
-0.0338745	0.0262451	-0.00762939
-0.0341797	0.0241089	-0.0100708
-0.0375366	0.0262451	-0.0112915
-0.0408936	0.0292969	-0.0115967
-0.0390625	0.0283813	-0.0106812
-0.032959	0.0238037	-0.00915527
-0.0262451	0.0186157	-0.00762939
-0.0204468	0.0149536	-0.00549316
-0.012207	0.00915527	-0.00305176
-0.00152588	-0.000610352	-0.00213623
0.0100708	-0.0119019	-0.00183105
0.0201416	-0.0213623	-0.0012207
0.0262451	-0.0268555	-0.000610352
0.0283813	-0.0289917	-0.000610352
0.0286865	-0.0292969	-0.000610352
0.0289917	-0.0289917	0
0.0286865	-0.0283813	0.000305176
0.0274658	-0.0268555	0.000610352
0.0250244	-0.0231934	0.00183105
0.0204468	-0.0189209	0.00152588
0.0143433	-0.0158691	-0.00152588
0.00854492	-0.0131226	-0.00457764
0.00701904	-0.0106812	-0.00366211
0.010376	-0.00976563	0.000610352
0.0161743	-0.00946045	0.00671387
0.0213623	-0.00946045	0.0119019
0.0256348	-0.00854492	0.0170898
0.027771	-0.00518799	0.022583
0.0286865	-0.000305176	0.0283813
0.0302124	0.00366211	0.0338745
0.0350952	0.00610352	0.0411987
0.039978	0.00793457	0.0479126
0.0430298	0.00915527	0.0521851
0.0442505	0.0088501	0.0531006
0.0442505	0.00732422	0.0515747
0.0439453	0.00518799	0.0491333
0.0457764	0.000305176	0.0460815
0.050354	-0.00671387	0.0436401
0.0552368	-0.0137329	0.0415039
0.0576782	-0.0177002	0.039978
0.0576782	-0.0186157	0.0390625
0.0564575	-0.0180054	0.0384521
0.0549316	-0.0167847	0.038147
0.050354	-0.012207	0.038147
0.0430298	-0.00488281	0.038147
0.0363159	0.00183105	0.038147
0.0317383	0.00640869	0.038147
0.0305176	0.00701904	0.0375366
0.0320435	0.00518799	0.0372314
0.0350952	0.00183105	0.0369263
0.0384521	-0.00244141	0.0360107
0.0411987	-0.00732422	0.0338745
0.0439453	-0.012207	0.0317383
0.0479126	-0.0177002	0.0302124
0.0552368	-0.0244141	0.0308228
0.0640869	-0.0314331	0.0326538
0.0692749	-0.0357056	0.0335693
0.0714111	-0.0378418	0.0335693
0.0723267	-0.0384521	0.0338745
0.0726318	-0.038147	0.0344849
0.0723267	-0.0366211	0.0357056
0.0714111	-0.0344849	0.0369263
0.0689697	-0.0326538	0.0363159
0.0650024	-0.0305176	0.0344849
0.0601196	-0.0289917	0.0311279
0.0552368	-0.0271606	0.0280762
0.0506592	-0.0262451	0.0244141
0.0469971	-0.0259399	0.0210571
0.0439453	-0.0265503	0.017395
0.0424194	-0.027771	0.0146484
0.0415039	-0.0292969	0.012207
0.0396729	-0.0296021	0.0100708
0.0369263	-0.0286865	0.00823975
0.0357056	-0.0286865	0.00701904
0.0360107	-0.0305176	0.00549316
0.0350952	-0.0305176	0.00457764
0.0314331	-0.0289917	0.00244141
0.0280762	-0.027771	0.000305176
0.0265503	-0.0283813	-0.00183105
0.0271606	-0.0308228	-0.00366211
0.0283813	-0.0335693	-0.00518799
0.0274658	-0.0338745	-0.00640869
0.0247192	-0.0314331	-0.00671387
0.0238037	-0.0308228	-0.00701904
0.0244141	-0.0323486	-0.00793457
0.0234985	-0.032959	-0.00946045
0.0210571	-0.0314331	-0.010376
0.0201416	-0.0305176	-0.010376
0.0210571	-0.0317383	-0.0106812
0.0192261	-0.0308228	-0.0115967
0.0128174	-0.0274658	-0.0146484
0.00671387	-0.0256348	-0.0189209
0.00396729	-0.0259399	-0.0219727
0.00457764	-0.0274658	-0.0228882
0.00640869	-0.0292969	-0.0228882
0.00671387	-0.0299072	-0.0231934
0.00671387	-0.0302124	-0.0234985
0.00762939	-0.0314331	-0.0238037
0.00915527	-0.032959	-0.0238037
0.0119019	-0.0344849	-0.022583
0.0149536	-0.0366211	-0.0216675
0.0170898	-0.0393677	-0.0222778
0.0183105	-0.0424194	-0.0241089
0.0186157	-0.0448608	-0.0262451
0.017395	-0.0457764	-0.0283813
0.0143433	-0.0445557	-0.0302124
0.00976563	-0.0411987	-0.0314331
0.00518799	-0.0372314	-0.0320435
0.0012207	-0.0335693	-0.0323486
-0.00152588	-0.0299072	-0.0314331
-0.00457764	-0.0253296	-0.0299072
-0.00701904	-0.0210571	-0.0280762
-0.00732422	-0.0186157	-0.0259399
-0.00579834	-0.0186157	-0.0244141
-0.00274658	-0.0201416	-0.0228882
-0.00152588	-0.0210571	-0.022583
-0.00335693	-0.020752	-0.0241089
-0.00732422	-0.0180054	-0.0253296
-0.0100708	-0.0149536	-0.0250244
-0.0115967	-0.0134277	-0.0250244
-0.0143433	-0.0119019	-0.0262451
-0.0183105	-0.00946045	-0.027771
-0.0198364	-0.00946045	-0.0292969
-0.0183105	-0.0119019	-0.0302124
-0.0161743	-0.0152588	-0.0314331
-0.0158691	-0.0183105	-0.0341797
-0.0146484	-0.020752	-0.0354004
-0.00701904	-0.0259399	-0.032959
0.00427246	-0.0354004	-0.0311279
0.0143433	-0.0454712	-0.0311279
0.0186157	-0.0500488	-0.0314331
0.0183105	-0.0497437	-0.0314331
0.0158691	-0.0473022	-0.0314331
0.0125122	-0.0442505	-0.0317383
0.00823975	-0.0393677	-0.0311279
0.00152588	-0.0317383	-0.0302124
-0.00640869	-0.0241089	-0.0305176
-0.0149536	-0.017395	-0.0323486
-0.0228882	-0.012207	-0.0350952
-0.0289917	-0.00793457	-0.0369263
-0.0317383	-0.00488281	-0.0366211
-0.0320435	-0.00335693	-0.0354004
-0.0302124	-0.00335693	-0.0335693
-0.0265503	-0.00427246	-0.0308228
-0.0219727	-0.00579834	-0.027771
-0.0146484	-0.00976563	-0.0244141
-0.00946045	-0.0119019	-0.0213623
-0.010376	-0.00823975	-0.0186157
-0.0115967	-0.00457764	-0.0161743
-0.00915527	-0.00488281	-0.0140381
-0.00457764	-0.00671387	-0.0112915
-0.00213623	-0.00671387	-0.0088501
-0.00244141	-0.00488281	-0.00732422
-0.00274658	-0.00274658	-0.00549316
-0.0012207	-0.00213623	-0.00335693
0.00183105	-0.00305176	-0.0012207
0.00518799	-0.00427246	0.000915527
0.00823975	-0.00518799	0.00305176
0.0106812	-0.00579834	0.00488281
0.0125122	-0.00671387	0.00579834
0.0134277	-0.00732422	0.00610352
0.0137329	-0.00762939	0.00610352
0.0134277	-0.00732422	0.00610352
0.0112915	-0.00579834	0.00549316
0.00762939	-0.00305176	0.00457764
0.00335693	0.000915527	0.00427246
0	0.00549316	0.00549316
0	0.00732422	0.00732422
0.00244141	0.00579834	0.00823975
0.00579834	0.00366211	0.00946045
0.0088501	0.00183105	0.0106812
0.0125122	-0.000610352	0.0119019
0.017395	-0.00518799	0.012207
0.0238037	-0.012207	0.0115967
0.0320435	-0.022583	0.00946045
0.0369263	-0.0323486	0.00457764
0.0341797	-0.0344849	-0.000305176
0.0283813	-0.0317383	-0.00335693
0.0231934	-0.0296021	-0.00640869
0.0180054	-0.0296021	-0.0115967
0.00915527	-0.0274658	-0.0183105
-0.00305176	-0.0228882	-0.0259399
-0.0131226	-0.0192261	-0.0323486
-0.0192261	-0.0170898	-0.0363159
-0.0234985	-0.0167847	-0.0402832
-0.0268555	-0.0189209	-0.0457764
-0.0271606	-0.0238037	-0.0509644
-0.0259399	-0.0314331	-0.057373
-0.0241089	-0.0396729	-0.0637817
-0.0213623	-0.0466919	-0.0680542
-0.0186157	-0.0518799	-0.0704956
-0.0164795	-0.0558472	-0.0723267
-0.0140381	-0.0588989	-0.072937
-0.0125122	-0.06073	-0.0732422
-0.0125122	-0.0610352	-0.0735474
-0.0131226	-0.06073	-0.0738525
-0.0134277	-0.0592041	-0.0726318
-0.0131226	-0.0579834	-0.071106
-0.0119019	-0.0579834	-0.0698853
-0.012207	-0.057373	-0.0695801
-0.015564	-0.0546265	-0.0701904
-0.0204468	-0.0500488	-0.0704956
-0.0241089	-0.0463867	-0.0704956
-0.0265503	-0.0445557	-0.071106
-0.0296021	-0.0418091	-0.0714111
-0.0341797	-0.0369263	-0.071106
-0.0387573	-0.0317383	-0.0704956
-0.0415039	-0.0280762	-0.0695801
-0.0415039	-0.0265503	-0.0680542
-0.0396729	-0.0268555	-0.0665283
-0.0363159	-0.0286865	-0.0650024
-0.0326538	-0.0317383	-0.0643921
-0.0299072	-0.0344849	-0.0643921
-0.0280762	-0.0384521	-0.0665283
-0.0241089	-0.0457764	-0.0698853
-0.0213623	-0.0524902	-0.0738525
-0.0308228	-0.0482178	-0.0790405
-0.0476074	-0.0378418	-0.0854492
-0.0567627	-0.0369263	-0.093689
-0.0561523	-0.045166	-0.101318
-0.0527954	-0.0534058	-0.106201
-0.0479126	-0.0579834	-0.105896
-0.038147	-0.0601196	-0.0982666
-0.0198364	-0.0634766	-0.083313
0.0100708	-0.0689697	-0.0588989
0.0491333	-0.072937	-0.0238037
0.093689	-0.0701904	0.0234985
0.141907	-0.0585938	0.083313
0.193176	-0.038147	0.155029
0.24292	-0.00946045	0.233459
0.283813	0.0274658	0.311279
0.313416	0.0723267	0.385742
0.330811	0.123291	0.454102
0.331726	0.175171	0.506897
0.314636	0.223389	0.538025
0.276489	0.265198	0.541687
0.21637	0.299377	0.515747
0.138855	0.324402	0.463257
0.0518799	0.338745	0.390625
-0.0363159	0.342712	0.306396
-0.12207	0.335083	0.213013
-0.200195	0.314636	0.114441
-0.263672	0.283203	0.0195313
-0.307617	0.242004	-0.0656128
-0.328369	0.194702	-0.133667
-0.325928	0.144043	-0.181885
-0.305176	0.0930786	-0.212097
-0.271301	0.0454712	-0.22583
-0.229187	0.00274658	-0.22644
-0.183105	-0.032959	-0.216064
-0.140076	-0.0604248	-0.2005
-0.104065	-0.078125	-0.18219
-0.0772095	-0.0863647	-0.163574
-0.06073	-0.0863647	-0.147095
-0.0531006	-0.0796509	-0.132751
-0.0515747	-0.0689697	-0.120544
-0.0540161	-0.0561523	-0.110168
-0.0570679	-0.0448608	-0.101929
-0.0576782	-0.0378418	-0.09552
-0.0579834	-0.0332642	-0.0912476
-0.0604248	-0.027771	-0.0881958
-0.0634766	-0.022583	-0.0860596
-0.0619507	-0.022583	-0.0845337
-0.055542	-0.0274658	-0.0830078
-0.0518799	-0.0296021	-0.0814819
-0.0561523	-0.0241089	-0.0802612
-0.0637817	-0.0152588	-0.0790405
-0.0656128	-0.0119019	-0.0775146
-0.06073	-0.0149536	-0.0756836
-0.0558472	-0.0177002	-0.0735474
-0.0534058	-0.0183105	-0.0717163
-0.0515747	-0.0183105	-0.0698853
-0.0485229	-0.0201416	-0.0686646
-0.0427246	-0.0247192	-0.0674438
-0.0344849	-0.0311279	-0.0656128
-0.0259399	-0.0378418	-0.0637817
-0.0189209	-0.043335	-0.0622559
-0.0137329	-0.0473022	-0.0610352
-0.010376	-0.0494385	-0.0598145
-0.0100708	-0.0482178	-0.0582886
-0.0134277	-0.0442505	-0.0576782
-0.0201416	-0.0390625	-0.0592041
-0.0262451	-0.03479	-0.0610352
-0.0262451	-0.0314331	-0.0576782
-0.0238037	-0.0283813	-0.0521851
-0.0219727	-0.0256348	-0.0476074
-0.0204468	-0.0231934	-0.0436401
-0.0201416	-0.0201416	-0.0402832
-0.0213623	-0.0149536	-0.0363159
-0.022583	-0.00946045	-0.0320435
-0.020752	-0.00762939	-0.0283813
-0.0167847	-0.00854492	-0.0253296
-0.0143433	-0.00946045	-0.0238037
-0.015564	-0.0088501	-0.0244141
-0.0189209	-0.00762939	-0.0265503
-0.020752	-0.00854492	-0.0292969
-0.022583	-0.0106812	-0.0332642
-0.0244141	-0.0137329	-0.038147
-0.0228882	-0.0183105	-0.0411987
-0.0183105	-0.022583	-0.0408936
-0.0128174	-0.0259399	-0.0387573
-0.00976563	-0.0274658	-0.0372314
-0.00854492	-0.027771	-0.0363159
-0.00732422	-0.027771	-0.0350952
-0.00671387	-0.0256348	-0.0323486
-0.00762939	-0.0219727	-0.0296021
-0.00762939	-0.0195313	-0.0271606
-0.00701904	-0.0183105	-0.0253296
-0.00518799	-0.0189209	-0.0241089
-0.00213623	-0.0216675	-0.0238037
0.00244141	-0.0259399	-0.0234985
0.00762939	-0.0289917	-0.0213623
0.0109863	-0.0286865	-0.0177002
0.0106812	-0.0256348	-0.0149536
0.00762939	-0.0198364	-0.012207
0.00396729	-0.0134277	-0.00946045
0.00427246	-0.010376	-0.00610352
0.00946045	-0.012207	-0.00274658
0.0158691	-0.015564	0.000305176
0.0210571	-0.0186157	0.00244141
0.0262451	-0.0219727	0.00427246
0.0338745	-0.0280762	0.00579834
0.0442505	-0.0372314	0.00701904
0.057373	-0.0485229	0.0088501
0.0726318	-0.0610352	0.0115967
0.0881958	-0.0726318	0.015564
0.101318	-0.0814819	0.0198364
0.110474	-0.0857544	0.0247192
0.115051	-0.0860596	0.0289917
0.115051	-0.0823975	0.0326538
0.111694	-0.0765991	0.0350952
0.107422	-0.0701904	0.0372314
0.10437	-0.0646973	0.0396729
0.10437	-0.0604248	0.0439453
0.107117	-0.0582886	0.0488281
0.110474	-0.0579834	0.0524902
0.115051	-0.0588989	0.0561523
0.121765	-0.0604248	0.0613403
0.130005	-0.062561	0.0674438
0.13916	-0.0634766	0.0756836
0.146179	-0.0622559	0.0839233
0.149536	-0.0588989	0.0906372
0.151062	-0.0552368	0.0958252
0.151978	-0.0524902	0.0994873
0.153198	-0.0500488	0.103149
0.152283	-0.0463867	0.105896
0.149536	-0.0418091	0.107727
0.145569	-0.0369263	0.108643
0.140991	-0.0326538	0.108337
0.136719	-0.0283813	0.108337
0.135193	-0.0256348	0.109558
0.136414	-0.0250244	0.111389
0.139771	-0.0259399	0.113831
0.140686	-0.0247192	0.115967
0.140381	-0.0222778	0.118103
0.142517	-0.0222778	0.120239
0.145569	-0.0231934	0.122375
0.144348	-0.0201416	0.124207
0.138855	-0.0137329	0.125122
0.133057	-0.00793457	0.125122
0.127869	-0.00457764	0.123291
0.12085	-0.00213623	0.118713
0.111084	0.00213623	0.11322
0.100098	0.0106812	0.110779
0.0900269	0.0186157	0.108643
0.0820923	0.0228882	0.10498
0.0744629	0.0234985	0.0979614
0.0683594	0.0222778	0.0906372
0.0637817	0.0204468	0.0842285
0.06073	0.0180054	0.0787354
0.0588989	0.0143433	0.0732422
0.057373	0.00976563	0.0671387
0.0546265	0.00549316	0.0601196
0.0488281	0.00335693	0.0521851
0.0415039	0.00335693	0.0448608
0.0372314	0.00244141	0.0396729
0.0338745	0	0.0338745
0.0289917	-0.00152588	0.0274658
0.0204468	0.000610352	0.0210571
0.010376	0.00518799	0.015564
0.00274658	0.00823975	0.0109863
-0.000610352	0.00854492	0.00793457
-0.00152588	0.00732422	0.00579834
-0.00213623	0.00518799	0.00305176
-0.00335693	0.00366211	0.000305176
-0.00610352	0.00305176	-0.00305176
-0.00915527	0.00366211	-0.00549316
-0.0125122	0.00518799	-0.00732422
-0.0161743	0.00732422	-0.0088501
-0.0192261	0.010376	-0.0088501
-0.0210571	0.0128174	-0.00823975
-0.0213623	0.0137329	-0.00762939
-0.0204468	0.0134277	-0.00701904
-0.0198364	0.0131226	-0.00671387
-0.0198364	0.0131226	-0.00671387
-0.0192261	0.0140381	-0.00518799
-0.0189209	0.0152588	-0.00366211
-0.0170898	0.0146484	-0.00244141
-0.0143433	0.0119019	-0.00244141
-0.0125122	0.00946045	-0.00305176
-0.012207	0.00823975	-0.00396729
-0.012207	0.00732422	-0.00488281
-0.0143433	0.00854492	-0.00579834
-0.0183105	0.0119019	-0.00640869
-0.0256348	0.0189209	-0.00671387
-0.0314331	0.0247192	-0.00671387
-0.0320435	0.0256348	-0.00640869
-0.0305176	0.0247192	-0.00579834
-0.0311279	0.0268555	-0.00427246
-0.0335693	0.0305176	-0.00305176
-0.0350952	0.0335693	-0.00152588
-0.0363159	0.0357056	-0.000610352
-0.0372314	0.0372314	0
-0.038147	0.0384521	0.000305176
-0.0366211	0.0366211	0
-0.0326538	0.032959	0.000305176
-0.0289917	0.0302124	0.0012207
-0.0253296	0.0280762	0.00274658
-0.0204468	0.0247192	0.00427246
-0.0143433	0.020752	0.00640869
-0.00823975	0.0158691	0.00762939
-0.00183105	0.0109863	0.00915527
0.00427246	0.00671387	0.0109863
0.00915527	0.00305176	0.012207
0.0131226	0.0012207	0.0143433
0.0134277	0.0012207	0.0146484
0.00946045	0.00305176	0.0125122
0.00274658	0.00610352	0.0088501
-0.00274658	0.010376	0.00762939
-0.00701904	0.0146484	0.00762939
-0.00946045	0.0198364	0.010376
-0.00854492	0.0234985	0.0149536
-0.00457764	0.0238037	0.0192261
0.000915527	0.0219727	0.0228882
0.00762939	0.0189209	0.0265503
0.0143433	0.0164795	0.0308228
0.0195313	0.0149536	0.0344849
0.0238037	0.0128174	0.0366211
0.0283813	0.0088501	0.0372314
0.0311279	0.00457764	0.0357056
0.0305176	0.000915527	0.0314331
0.0283813	-0.0012207	0.0271606
0.0250244	-0.00274658	0.0222778
0.020752	-0.00335693	0.017395
0.0164795	-0.00274658	0.0137329
0.0115967	-0.000610352	0.0109863
0.00701904	0.00213623	0.00915527
0.00457764	0.00366211	0.00823975
0.00305176	0.00488281	0.00793457
0.000610352	0.00793457	0.00854492
-0.00427246	0.0137329	0.00946045
-0.0112915	0.020752	0.00946045
-0.017395	0.0250244	0.00762939
-0.0210571	0.0265503	0.00549316
-0.0244141	0.0268555	0.00244141
-0.0268555	0.0265503	-0.000305176
-0.0265503	0.0241089	-0.00244141
-0.0219727	0.0177002	-0.00427246
-0.0149536	0.00946045	-0.00549316
-0.00793457	0.00183105	-0.00610352
-0.0012207	-0.00457764	-0.00579834
0.00488281	-0.00946045	-0.00457764
0.00976563	-0.0131226	-0.00335693
0.0134277	-0.0146484	-0.0012207
0.0167847	-0.015564	0.0012207
0.020752	-0.0170898	0.00366211
0.0219727	-0.0167847	0.00518799
0.0192261	-0.0131226	0.00610352
0.0146484	-0.00976563	0.00488281
0.0106812	-0.00793457	0.00274658
0.00762939	-0.00732422	0.000305176
0.00640869	-0.00946045	-0.00305176
0.00671387	-0.0131226	-0.00640869
0.00549316	-0.0143433	-0.0088501
0.000305176	-0.0109863	-0.0106812
-0.00518799	-0.00762939	-0.0128174
-0.00762939	-0.00701904	-0.0146484
-0.0100708	-0.00610352	-0.0161743
-0.0131226	-0.00457764	-0.0177002
-0.015564	-0.00274658	-0.0183105
-0.0183105	-0.000305176	-0.0186157
-0.0216675	0.00183105	-0.0198364
-0.022583	0.000610352	-0.0219727
-0.0198364	-0.00274658	-0.022583
-0.0158691	-0.00671387	-0.022583
-0.0134277	-0.00946045	-0.0228882
-0.0128174	-0.0106812	-0.0234985
-0.0112915	-0.0115967	-0.0228882
-0.00915527	-0.0115967	-0.020752
-0.00640869	-0.0112915	-0.0177002
-0.00396729	-0.0119019	-0.0158691
-0.00335693	-0.0125122	-0.0158691
-0.00518799	-0.0119019	-0.0170898
-0.00946045	-0.00823975	-0.0177002
-0.0115967	-0.00335693	-0.0149536
-0.0125122	0.000610352	-0.0119019
-0.0161743	0.00549316	-0.0106812
-0.0204468	0.0100708	-0.010376
-0.0231934	0.0134277	-0.00976563
-0.0241089	0.0149536	-0.00915527
-0.0228882	0.0149536	-0.00793457
-0.0204468	0.0143433	-0.00610352
-0.0158691	0.0128174	-0.00305176
-0.0106812	0.00915527	-0.00152588
-0.00671387	0.00335693	-0.00335693
-0.00457764	-0.00274658	-0.00732422
-0.00366211	-0.00701904	-0.0106812
-0.00488281	-0.00732422	-0.012207
-0.00732422	-0.00640869	-0.0137329
-0.0100708	-0.00396729	-0.0140381
-0.0115967	-0.0012207	-0.0128174
-0.0131226	0.00183105	-0.0112915
-0.0152588	0.00640869	-0.0088501
-0.0170898	0.0112915	-0.00579834
-0.017395	0.0149536	-0.00244141
-0.015564	0.0167847	0.0012207
-0.0119019	0.0167847	0.00488281
-0.00823975	0.015564	0.00732422
-0.00579834	0.0140381	0.00823975
-0.00457764	0.012207	0.00762939
-0.00396729	0.0112915	0.00732422
-0.00335693	0.0109863	0.00762939
-0.00427246	0.0125122	0.00823975
-0.00915527	0.0180054	0.0088501
-0.0146484	0.0250244	0.010376
-0.0146484	0.0274658	0.0128174
-0.0106812	0.0265503	0.0158691
-0.00518799	0.0256348	0.0204468
0.000305176	0.0250244	0.0253296
0.00579834	0.0247192	0.0305176
0.0112915	0.0241089	0.0354004
0.017395	0.0219727	0.0393677
0.0234985	0.0192261	0.0427246
0.0286865	0.0170898	0.0457764
0.0308228	0.017395	0.0482178
0.0323486	0.0183105	0.0506592
0.03479	0.0192261	0.0540161
0.0354004	0.020752	0.0561523
0.0317383	0.0241089	0.0558472
0.0241089	0.0289917	0.0531006
0.0186157	0.0323486	0.0509644
0.0189209	0.0311279	0.0500488
0.0222778	0.0259399	0.0482178
0.0238037	0.0216675	0.0454712
0.0222778	0.0177002	0.039978
0.0195313	0.0140381	0.0335693
0.0183105	0.0100708	0.0283813
0.022583	0.00396729	0.0265503
0.0262451	-0.00305176	0.0231934
0.0265503	-0.00854492	0.0180054
0.0253296	-0.012207	0.0131226
0.0234985	-0.0152588	0.00823975
0.0210571	-0.0164795	0.00457764
0.017395	-0.0158691	0.00152588
0.0146484	-0.015564	-0.000915527
0.0109863	-0.0152588	-0.00427246
0.00610352	-0.0146484	-0.00854492
0	-0.0134277	-0.0134277
-0.00640869	-0.0109863	-0.017395
-0.0125122	-0.00854492	-0.0210571
-0.0170898	-0.00732422	-0.0244141
-0.0210571	-0.00732422	-0.0283813
-0.0253296	-0.00793457	-0.0332642
-0.0286865	-0.00854492	-0.0372314
-0.0292969	-0.00946045	-0.0387573
-0.0283813	-0.0119019	-0.0402832
-0.0256348	-0.0167847	-0.0424194
-0.0213623	-0.0222778	-0.0436401
-0.0170898	-0.0262451	-0.043335
-0.0125122	-0.0283813	-0.0408936
-0.00854492	-0.0280762	-0.0366211
-0.00579834	-0.0262451	-0.0320435
-0.00457764	-0.0244141	-0.0289917
-0.00427246	-0.0222778	-0.0265503
-0.00396729	-0.0198364	-0.0238037
-0.00305176	-0.0177002	-0.020752
-0.00274658	-0.0149536	-0.0177002
-0.00488281	-0.0109863	-0.0158691
-0.00701904	-0.00762939	-0.0146484
-0.00701904	-0.00671387	-0.0137329
-0.00610352	-0.00671387	-0.0128174
-0.00579834	-0.00732422	-0.0131226
-0.00579834	-0.00854492	-0.0143433
-0.00549316	-0.0115967	-0.0170898
-0.00579834	-0.0143433	-0.0201416
-0.00701904	-0.0161743	-0.0231934
-0.0100708	-0.0170898	-0.0271606
-0.0158691	-0.015564	-0.0314331
-0.0183105	-0.0177002	-0.0360107
-0.012207	-0.0259399	-0.038147
-0.000305176	-0.0363159	-0.0366211
0.0143433	-0.0439453	-0.0296021
0.0320435	-0.0473022	-0.0152588
0.055542	-0.0463867	0.00915527
0.085144	-0.0405884	0.0445557
0.123291	-0.0283813	0.0949097
0.168762	-0.00946045	0.159302
0.21698	0.0152588	0.232239
0.265198	0.0457764	0.310974
0.308228	0.0820923	0.39032
0.341492	0.124512	0.466003
0.362244	0.170898	0.533142
0.368347	0.216064	0.584412
0.351868	0.256958	0.608826
0.309143	0.292053	0.601196
0.245361	0.318604	0.563965
0.167542	0.335083	0.502625
0.0808716	0.340881	0.421753
-0.00854492	0.336304	0.327759
-0.09552	0.322876	0.227356
-0.17395	0.302124	0.128174
-0.236206	0.273132	0.0369263
-0.276794	0.236206	-0.0405884
-0.293579	0.193481	-0.100098
-0.290222	0.149536	-0.140686
-0.26947	0.108032	-0.161438
-0.235596	0.0695801	-0.166016
-0.194092	0.0344849	-0.159607
-0.150452	0.00335693	-0.147095
-0.108643	-0.022583	-0.131226
-0.072937	-0.0418091	-0.114746
-0.0445557	-0.0543213	-0.098877
-0.0241089	-0.0601196	-0.0842285
-0.0100708	-0.0610352	-0.071106
-0.000305176	-0.0585938	-0.0588989
0.00549316	-0.0540161	-0.0485229
0.00793457	-0.0482178	-0.0402832
0.00732422	-0.0408936	-0.0335693
0.00579834	-0.0335693	-0.027771
0.00549316	-0.0274658	-0.0219727
0.00427246	-0.020752	-0.0164795
0.000610352	-0.0134277	-0.0128174
-0.000915527	-0.00946045	-0.010376
0.00427246	-0.0119019	-0.00762939
0.0119019	-0.0164795	-0.00457764
0.0152588	-0.0170898	-0.00183105
0.0125122	-0.012207	0.000305176
0.00854492	-0.00640869	0.00213623
0.00701904	-0.00366211	0.00335693
0.0100708	-0.00579834	0.00427246
0.0149536	-0.010376	0.00457764
0.0180054	-0.0137329	0.00427246
0.0204468	-0.0152588	0.00518799
0.0231934	-0.0177002	0.00549316
0.0283813	-0.0231934	0.00518799
0.0366211	-0.0311279	0.00549316
0.0463867	-0.038147	0.00823975
0.0561523	-0.0439453	0.012207
0.0643921	-0.0482178	0.0161743
0.0708008	-0.050354	0.0204468
0.0744629	-0.050354	0.0241089
0.0747681	-0.0476074	0.0271606
0.0723267	-0.0418091	0.0305176
0.067749	-0.0341797	0.0335693
0.0622559	-0.0265503	0.0357056
0.0570679	-0.020752	0.0363159
0.0531006	-0.0170898	0.0360107
0.0500488	-0.0140381	0.0360107
0.0476074	-0.0125122	0.0350952
0.0457764	-0.0128174	0.032959
0.0427246	-0.0128174	0.0299072
0.0411987	-0.0125122	0.0286865
0.0415039	-0.0131226	0.0283813
0.0427246	-0.015564	0.0271606
0.0442505	-0.0186157	0.0256348
0.0442505	-0.0201416	0.0241089
0.043335	-0.0201416	0.0231934
0.0436401	-0.0201416	0.0234985
0.0436401	-0.0192261	0.0244141
0.0424194	-0.0167847	0.0256348
0.0408936	-0.0128174	0.0280762
0.0393677	-0.00854492	0.0308228
0.038147	-0.00457764	0.0335693
0.0393677	-0.00396729	0.0354004
0.0421143	-0.00579834	0.0363159
0.0442505	-0.00701904	0.0372314
0.0448608	-0.00671387	0.038147
0.0482178	-0.00762939	0.0405884
0.0552368	-0.0119019	0.043335
0.0650024	-0.0183105	0.0466919
0.0744629	-0.0250244	0.0494385
0.0820923	-0.0296021	0.0524902
0.0872803	-0.0311279	0.0561523
0.0891113	-0.0289917	0.0601196
0.0863647	-0.0231934	0.0631714
0.0845337	-0.0183105	0.0662231
0.0881958	-0.0198364	0.0683594
0.0961304	-0.0268555	0.0692749
0.101929	-0.0335693	0.0683594
0.102844	-0.0372314	0.0656128
0.10376	-0.0405884	0.0631714
0.104675	-0.0436401	0.0610352
0.108643	-0.0476074	0.0610352
0.117798	-0.055542	0.0622559
0.128174	-0.0634766	0.0646973
0.137329	-0.0689697	0.0683594
0.143433	-0.0698853	0.0735474
0.146484	-0.0665283	0.0799561
0.1474	-0.06073	0.0866699
0.149536	-0.0561523	0.0933838
0.154419	-0.0543213	0.100098
0.160217	-0.0549316	0.105286
0.16449	-0.0546265	0.109863
0.166321	-0.0540161	0.112305
0.167847	-0.0543213	0.113525
0.170898	-0.0558472	0.115051
0.175171	-0.0579834	0.117188
0.177307	-0.0579834	0.119324
0.177002	-0.0558472	0.121155
0.177612	-0.0543213	0.123291
0.179749	-0.0540161	0.125732
0.181885	-0.0540161	0.127869
0.183105	-0.0527954	0.13031
0.183716	-0.0512695	0.132446
0.184326	-0.0491333	0.135193
0.184631	-0.0473022	0.137329
0.184326	-0.0454712	0.138855
0.183105	-0.043335	0.139771
0.181274	-0.0415039	0.139771
0.179138	-0.0396729	0.139465
0.176697	-0.0378418	0.138855
0.171204	-0.0332642	0.137939
0.162964	-0.0250244	0.137939
0.151672	-0.0149536	0.136719
0.140381	-0.00640869	0.133972
0.131836	-0.0012207	0.130615
0.126343	0.0012207	0.127563
0.121155	0.00366211	0.124817
0.113831	0.00854492	0.122375
0.102844	0.0161743	0.119019
0.0942993	0.0204468	0.114746
0.0912476	0.0177002	0.108948
0.0909424	0.0119019	0.102844
0.0915527	0.00518799	0.0967407
0.0912476	-0.00244141	0.0888062
0.0875854	-0.00854492	0.0790405
0.0790405	-0.00946045	0.0695801
0.067749	-0.00671387	0.0610352
0.0582886	-0.00396729	0.0543213
0.0512695	-0.00274658	0.0485229
0.0427246	-0.000305176	0.0424194
0.0323486	0.00396729	0.0363159
0.0213623	0.00976563	0.0311279
0.010376	0.0158691	0.0262451
0.0012207	0.0210571	0.0222778
-0.00427246	0.022583	0.0183105
-0.00732422	0.0210571	0.0137329
-0.0106812	0.0189209	0.00823975
-0.015564	0.0164795	0.000915527
-0.020752	0.0137329	-0.00701904
-0.0238037	0.00976563	-0.0140381
-0.0253296	0.00640869	-0.0189209
-0.0292969	0.00610352	-0.0231934
-0.0366211	0.00915527	-0.0274658
-0.0442505	0.0131226	-0.0311279
-0.0509644	0.0161743	-0.03479
-0.0549316	0.0177002	-0.0372314
-0.0567627	0.0186157	-0.038147
-0.0585938	0.0186157	-0.039978
-0.0613403	0.0183105	-0.0430298
-0.0637817	0.0183105	-0.0454712
-0.065918	0.0183105	-0.0476074
-0.0683594	0.0186157	-0.0497437
-0.0708008	0.0198364	-0.0509644
-0.0717163	0.0198364	-0.0518799
-0.071106	0.0189209	-0.0521851
-0.0708008	0.0189209	-0.0518799
-0.0704956	0.0192261	-0.0512695
-0.0704956	0.0198364	-0.0506592
-0.0714111	0.0198364	-0.0515747
-0.0720215	0.0189209	-0.0531006
-0.0714111	0.0177002	-0.0537109
-0.0695801	0.0158691	-0.0537109
-0.0698853	0.015564	-0.0543213
-0.0756836	0.0201416	-0.055542
-0.0839233	0.0274658	-0.0564575
-0.088501	0.0317383	-0.0567627
-0.0891113	0.0323486	-0.0567627
-0.0918579	0.0341797	-0.0576782
-0.0979614	0.038147	-0.0598145
-0.100403	0.0393677	-0.0610352
-0.0964355	0.0360107	-0.0604248
-0.0909424	0.0320435	-0.0588989
-0.0848389	0.0265503	-0.0582886
-0.0772095	0.0189209	-0.0582886
-0.0695801	0.0115967	-0.0579834
-0.0650024	0.00732422	-0.0576782
-0.0619507	0.00579834	-0.0561523
-0.0582886	0.00518799	-0.0531006
-0.0549316	0.00549316	-0.0494385
-0.0524902	0.00610352	-0.0463867
-0.0543213	0.0088501	-0.0454712
-0.0579834	0.0134277	-0.0445557
-0.0582886	0.0158691	-0.0424194
-0.0558472	0.0152588	-0.0405884
-0.0531006	0.0134277	-0.0396729
-0.0524902	0.0128174	-0.0396729
-0.0540161	0.0143433	-0.0396729
-0.0570679	0.0167847	-0.0402832
-0.0592041	0.0177002	-0.0415039
-0.0601196	0.017395	-0.0427246
-0.0622559	0.0183105	-0.0439453
-0.065918	0.0201416	-0.0457764
-0.0686646	0.0213623	-0.0473022
-0.071106	0.022583	-0.0485229
-0.0735474	0.0238037	-0.0497437
-0.0747681	0.0247192	-0.0500488
-0.0759888	0.0262451	-0.0497437
-0.0778198	0.0280762	-0.0497437
-0.0772095	0.0274658	-0.0497437
-0.0735474	0.0234985	-0.0500488
-0.0683594	0.0189209	-0.0494385
-0.0646973	0.0152588	-0.0494385
-0.0616455	0.0125122	-0.0491333
-0.0588989	0.0100708	-0.0488281
-0.0561523	0.00701904	-0.0491333
-0.0524902	0.00274658	-0.0497437
-0.0485229	-0.00213623	-0.0506592
-0.0466919	-0.00610352	-0.0527954
-0.0473022	-0.00701904	-0.0543213
-0.0463867	-0.00640869	-0.0527954
-0.0454712	-0.00488281	-0.050354
-0.0466919	-0.00244141	-0.0491333
-0.0497437	0.000610352	-0.0491333
-0.0521851	0.00274658	-0.0494385
-0.0524902	0.00396729	-0.0485229
-0.0521851	0.00518799	-0.0469971
-0.0524902	0.00610352	-0.0463867
-0.0531006	0.00640869	-0.0466919
-0.0549316	0.00701904	-0.0479126
-0.0592041	0.00946045	-0.0497437
-0.0622559	0.00976563	-0.0524902
-0.0634766	0.00793457	-0.055542
-0.0634766	0.00457764	-0.0588989
-0.0640869	0.00213623	-0.0619507
-0.0650024	0.00183105	-0.0631714
-0.0637817	0.00213623	-0.0616455
-0.0588989	0	-0.0588989
-0.0518799	-0.00427246	-0.0561523
-0.0466919	-0.00640869	-0.0531006
-0.0436401	-0.00671387	-0.050354
-0.0396729	-0.00793457	-0.0476074
-0.0357056	-0.00915527	-0.0448608
-0.0326538	-0.00823975	-0.0408936
-0.0338745	-0.00518799	-0.0390625
-0.0384521	-0.0012207	-0.0396729
-0.0430298	0.000610352	-0.0424194
-0.0454712	0.000305176	-0.045166
-0.0457764	-0.000915527	-0.0466919
-0.0476074	-0.0012207	-0.0488281
-0.050354	-0.00183105	-0.0521851
-0.050354	-0.00457764	-0.0549316
-0.0479126	-0.00671387	-0.0546265
-0.045166	-0.00671387	-0.0518799
-0.0421143	-0.00823975	-0.050354
-0.0387573	-0.0109863	-0.0497437
-0.0366211	-0.0137329	-0.050354
-0.0360107	-0.0140381	-0.0500488
-0.0372314	-0.0125122	-0.0497437
-0.0396729	-0.00976563	-0.0494385
-0.0436401	-0.00732422	-0.0509644
-0.0469971	-0.00518799	-0.0521851
-0.0482178	-0.00396729	-0.0521851
-0.0491333	-0.00305176	-0.0521851
-0.0524902	-0.000305176	-0.0527954
-0.0564575	0.00335693	-0.0531006
-0.0595093	0.00640869	-0.0531006
-0.0631714	0.010376	-0.0527954
-0.0674438	0.0149536	-0.0524902
-0.0686646	0.0164795	-0.0521851
-0.067749	0.0158691	-0.0518799
-0.0686646	0.0158691	-0.0527954
-0.071106	0.0170898	-0.0540161
-0.0732422	0.0177002	-0.055542
-0.0735474	0.0164795	-0.0570679
-0.071106	0.0131226	-0.0579834
-0.0662231	0.00854492	-0.0576782
-0.06073	0.00396729	-0.0567627
-0.0552368	0.000610352	-0.0546265
-0.0497437	-0.00213623	-0.0518799
-0.0454712	-0.00366211	-0.0491333
-0.0421143	-0.00457764	-0.0466919
-0.0390625	-0.00640869	-0.0454712
-0.0363159	-0.00854492	-0.0448608
-0.0335693	-0.00915527	-0.0427246
-0.0311279	-0.00762939	-0.0387573
-0.0289917	-0.00518799	-0.0341797
-0.027771	-0.00183105	-0.0296021
-0.0280762	0.00244141	-0.0256348
-0.0323486	0.0109863	-0.0213623
-0.0384521	0.0216675	-0.0167847
-0.0402832	0.027771	-0.0125122
-0.0369263	0.0274658	-0.00946045
-0.0320435	0.0253296	-0.00671387
-0.0302124	0.0253296	-0.00488281
-0.0314331	0.0259399	-0.00549316
-0.0323486	0.0241089	-0.00823975
-0.0305176	0.0189209	-0.0115967
-0.0259399	0.0128174	-0.0131226
-0.0186157	0.00732422	-0.0112915
-0.0115967	0.00396729	-0.00762939
-0.00640869	0.00305176	-0.00335693
-0.00366211	0.00488281	0.0012207
-0.00274658	0.00854492	0.00579834
-0.00335693	0.0137329	0.010376
-0.00366211	0.0189209	0.0152588
-0.00366211	0.0234985	0.0198364
-0.00549316	0.0268555	0.0213623
-0.00762939	0.0286865	0.0210571
-0.0106812	0.0314331	0.020752
-0.0125122	0.0335693	0.0210571
-0.0112915	0.0326538	0.0213623
-0.00915527	0.0296021	0.0204468
-0.0100708	0.0289917	0.0189209
-0.012207	0.0305176	0.0183105
-0.0119019	0.0302124	0.0183105
-0.0088501	0.0271606	0.0183105
-0.00396729	0.0222778	0.0183105
-0.000305176	0.0167847	0.0164795
0.00213623	0.0115967	0.0137329
0.00366211	0.00610352	0.00976563
0.00244141	0.00213623	0.00457764
-0.00396729	0.00274658	-0.0012207
-0.0106812	0.00396729	-0.00671387
-0.0149536	0.00396729	-0.0109863
-0.017395	0.00335693	-0.0140381
-0.0204468	0.00366211	-0.0167847
-0.0256348	0.00518799	-0.0204468
-0.0314331	0.00671387	-0.0247192
-0.0357056	0.00640869	-0.0292969
-0.0378418	0.00335693	-0.0344849
-0.0378418	-0.000915527	-0.0387573
-0.0387573	-0.00427246	-0.0430298
-0.0415039	-0.00610352	-0.0476074
-0.0457764	-0.00640869	-0.0521851
-0.0509644	-0.00610352	-0.0570679
-0.0564575	-0.00518799	-0.0616455
-0.062561	-0.00366211	-0.0662231
-0.067749	-0.00152588	-0.0692749
-0.071106	0	-0.071106
-0.0704956	0.000610352	-0.0698853
-0.0656128	-0.00213623	-0.067749
-0.0588989	-0.00732422	-0.0662231
-0.0527954	-0.0125122	-0.0653076
-0.0485229	-0.0149536	-0.0634766
-0.0445557	-0.0167847	-0.0613403
-0.039978	-0.0189209	-0.0588989
-0.038147	-0.0186157	-0.0567627
-0.0390625	-0.0158691	-0.0549316
-0.0396729	-0.0134277	-0.0531006
-0.0402832	-0.0115967	-0.0518799
-0.0421143	-0.010376	-0.0524902
-0.0436401	-0.00946045	-0.0531006
-0.0439453	-0.00946045	-0.0534058
-0.0424194	-0.0115967	-0.0540161
-0.0402832	-0.015564	-0.0558472
-0.0384521	-0.0198364	-0.0582886
-0.0387573	-0.0219727	-0.06073
-0.0418091	-0.0213623	-0.0631714
-0.0479126	-0.0186157	-0.0665283
-0.0552368	-0.015564	-0.0708008
-0.0628662	-0.0112915	-0.0741577
-0.0692749	-0.00701904	-0.0762939
-0.0723267	-0.00549316	-0.0778198
-0.0683594	-0.00762939	-0.0759888
-0.0564575	-0.0140381	-0.0704956
-0.0372314	-0.0231934	-0.0604248
-0.0137329	-0.0302124	-0.0439453
0.0128174	-0.0320435	-0.0192261
0.0405884	-0.0256348	0.0149536
0.0701904	-0.0100708	0.0601196
0.105591	0.0119019	0.117493
0.147095	0.038147	0.185242
0.188904	0.071106	0.26001
0.224304	0.112915	0.337219
0.25177	0.160522	0.412292
0.271301	0.210266	0.481567
0.280457	0.257874	0.53833
0.276794	0.297241	0.574036
0.256653	0.326538	0.583191
0.218506	0.344849	0.563354
0.162964	0.354614	0.517578
0.0915527	0.357971	0.449524
0.00976563	0.354919	0.364685
-0.0723267	0.339966	0.267639
-0.145264	0.312195	0.166931
-0.205688	0.275574	0.0698853
-0.255432	0.238037	-0.017395
-0.291443	0.200806	-0.0906372
-0.307312	0.161743	-0.145569
-0.301514	0.119934	-0.18158
-0.27832	0.0787354	-0.199585
-0.244751	0.0415039	-0.203247
-0.207214	0.010376	-0.196838
-0.170288	-0.0131226	-0.183411
-0.137329	-0.0289917	-0.166321
-0.109558	-0.0393677	-0.148926
-0.0869751	-0.0448608	-0.131836
-0.0701904	-0.0457764	-0.115967
-0.0592041	-0.0427246	-0.101929
-0.0521851	-0.0369263	-0.0891113
-0.0485229	-0.0289917	-0.0775146
-0.0497437	-0.0183105	-0.0680542
-0.0549316	-0.00579834	-0.06073
-0.0588989	0.00488281	-0.0540161
-0.0598145	0.0109863	-0.0488281
-0.057373	0.012207	-0.045166
-0.0543213	0.012207	-0.0421143
-0.0506592	0.0106812	-0.039978
-0.0463867	0.00793457	-0.0384521
-0.0424194	0.00427246	-0.038147
-0.0402832	0.000610352	-0.0396729
-0.0405884	-0.00183105	-0.0424194
-0.0405884	-0.00488281	-0.0454712
-0.0363159	-0.00915527	-0.0454712
-0.0302124	-0.0128174	-0.0430298
-0.0274658	-0.0128174	-0.0402832
-0.0283813	-0.010376	-0.0387573
-0.0274658	-0.00854492	-0.0360107
-0.0250244	-0.00701904	-0.0320435
-0.0219727	-0.00457764	-0.0265503
-0.0183105	-0.00152588	-0.0198364
-0.0180054	0.00366211	-0.0143433
-0.0210571	0.00976563	-0.0112915
-0.0256348	0.0170898	-0.00854492
-0.027771	0.0216675	-0.00610352
-0.0283813	0.0231934	-0.00518799
-0.0296021	0.0234985	-0.00610352
-0.0314331	0.0234985	-0.00793457
-0.0332642	0.0216675	-0.0115967
-0.0323486	0.0183105	-0.0140381
-0.0292969	0.0131226	-0.0161743
-0.0238037	0.00518799	-0.0186157
-0.017395	-0.00244141	-0.0198364
-0.0112915	-0.00823975	-0.0195313
-0.00610352	-0.0119019	-0.0180054
-0.00518799	-0.0115967	-0.0167847
-0.00732422	-0.00854492	-0.0158691
-0.00915527	-0.00518799	-0.0143433
-0.010376	-0.00183105	-0.012207
-0.0115967	0.00213623	-0.00946045
-0.0134277	0.00579834	-0.00762939
-0.0149536	0.00854492	-0.00640869
-0.015564	0.00976563	-0.00579834
-0.0158691	0.0100708	-0.00579834
-0.0161743	0.00976563	-0.00640869
-0.0158691	0.0088501	-0.00701904
-0.0149536	0.00732422	-0.00762939
-0.0125122	0.00549316	-0.00701904
-0.0109863	0.00488281	-0.00610352
-0.00976563	0.00488281	-0.00488281
-0.00762939	0.00427246	-0.00335693
-0.00488281	0.00305176	-0.00183105
-0.00183105	0.0012207	-0.000610352
0.00183105	-0.000915527	0.000915527
0.00579834	-0.00274658	0.00305176
0.00793457	-0.00274658	0.00518799
0.00793457	-0.0012207	0.00671387
0.00854492	-0.000915527	0.00762939
0.0112915	-0.00244141	0.0088501
0.0158691	-0.00579834	0.0100708
0.0180054	-0.00640869	0.0115967
0.0177002	-0.00427246	0.0134277
0.0180054	-0.00244141	0.015564
0.0186157	-0.000915527	0.0177002
0.0195313	0	0.0195313
0.0213623	-0.0012207	0.0201416
0.0247192	-0.00396729	0.020752
0.0302124	-0.00579834	0.0244141
0.0344849	-0.00610352	0.0283813
0.0375366	-0.00488281	0.0326538
0.0442505	-0.00396729	0.0402832
0.0531006	-0.00427246	0.0488281
0.0613403	-0.00396729	0.057373
0.067749	-0.00305176	0.0646973
0.0759888	-0.00366211	0.0723267
0.0869751	-0.00701904	0.0799561
0.0985718	-0.0112915	0.0872803
0.107422	-0.0143433	0.0930786
0.11322	-0.0164795	0.0967407
0.119019	-0.0204468	0.0985718
0.126953	-0.0271606	0.0997925
0.136414	-0.0344849	0.101929
0.144348	-0.0405884	0.10376
0.1474	-0.0439453	0.103455
0.1474	-0.0436401	0.10376
0.145569	-0.0405884	0.10498
0.142822	-0.0357056	0.107117
0.139465	-0.0305176	0.108948
0.136414	-0.0253296	0.111084
0.135498	-0.020752	0.114746
0.134888	-0.0164795	0.118408
0.131531	-0.010376	0.121155
0.126953	-0.00335693	0.123596
0.124817	0.00244141	0.127258
0.125732	0.00671387	0.132446
0.127258	0.0100708	0.137329
0.127869	0.0131226	0.140991
0.127258	0.0158691	0.143127
0.125427	0.0180054	0.143433
0.122375	0.0198364	0.142212
0.117493	0.0210571	0.13855
0.11261	0.0213623	0.133972
0.108337	0.0213623	0.1297
0.102844	0.0219727	0.124817
0.09552	0.0234985	0.119019
0.088501	0.0244141	0.112915
0.0808716	0.0265503	0.107422
0.071106	0.0311279	0.102234
0.0616455	0.0350952	0.0967407
0.0537109	0.0372314	0.0909424
0.0463867	0.0387573	0.085144
0.0390625	0.0396729	0.0787354
0.0305176	0.0411987	0.0717163
0.0210571	0.0427246	0.0637817
0.0112915	0.0436401	0.0549316
0.0012207	0.0448608	0.0460815
-0.00915527	0.0466919	0.0375366
-0.0170898	0.0469971	0.0299072
-0.022583	0.0454712	0.0228882
-0.0268555	0.0439453	0.0170898
-0.0305176	0.0424194	0.0119019
-0.0344849	0.0421143	0.00762939
-0.0375366	0.0411987	0.00366211
-0.0384521	0.0390625	0.000610352
-0.0393677	0.0360107	-0.00335693
-0.0418091	0.0341797	-0.00762939
-0.045166	0.0338745	-0.0112915
-0.0482178	0.0335693	-0.0146484
-0.0494385	0.0326538	-0.0167847
-0.0482178	0.0308228	-0.017395
-0.045166	0.0289917	-0.0161743
-0.0430298	0.0283813	-0.0146484
-0.0402832	0.027771	-0.0125122
-0.0350952	0.0268555	-0.00823975
-0.0305176	0.0262451	-0.00427246
-0.0256348	0.0241089	-0.00152588
-0.0216675	0.0222778	0.000610352
-0.020752	0.0219727	0.0012207
-0.022583	0.0231934	0.000610352
-0.0280762	0.0253296	-0.00274658
-0.0375366	0.0296021	-0.00793457
-0.0473022	0.0335693	-0.0137329
-0.0537109	0.0354004	-0.0183105
-0.0598145	0.0372314	-0.022583
-0.0665283	0.0405884	-0.0259399
-0.0723267	0.0436401	-0.0286865
-0.0750732	0.0454712	-0.0296021
-0.0732422	0.0457764	-0.0274658
-0.0683594	0.0454712	-0.0228882
-0.0631714	0.045166	-0.0180054
-0.0592041	0.0448608	-0.0143433
-0.0552368	0.043335	-0.0119019
-0.0521851	0.0421143	-0.0100708
-0.0518799	0.0424194	-0.00946045
-0.0543213	0.0436401	-0.0106812
-0.0570679	0.0442505	-0.0128174
-0.0592041	0.045166	-0.0140381
-0.0619507	0.0469971	-0.0149536
-0.0650024	0.0482178	-0.0167847
-0.0671387	0.0485229	-0.0186157
-0.0668335	0.0473022	-0.0195313
-0.0640869	0.0445557	-0.0195313
-0.06073	0.0415039	-0.0192261
-0.0595093	0.0415039	-0.0180054
-0.0582886	0.0421143	-0.0161743
-0.055542	0.0405884	-0.0149536
-0.050354	0.0360107	-0.0143433
-0.0439453	0.0305176	-0.0134277
-0.0393677	0.0259399	-0.0134277
-0.0369263	0.0241089	-0.0128174
-0.0366211	0.0241089	-0.0125122
-0.038147	0.0262451	-0.0119019
-0.0393677	0.0274658	-0.0119019
-0.0405884	0.0271606	-0.0134277
-0.0442505	0.0268555	-0.017395
-0.0473022	0.0271606	-0.0201416
-0.0448608	0.0274658	-0.017395
-0.0411987	0.0283813	-0.0128174
-0.0402832	0.0299072	-0.010376
-0.0402832	0.0311279	-0.00915527
-0.0390625	0.0320435	-0.00701904
-0.0357056	0.0317383	-0.00396729
-0.0299072	0.0305176	0.000610352
-0.0238037	0.0289917	0.00518799
-0.0195313	0.0283813	0.0088501
-0.0183105	0.0286865	0.010376
-0.0177002	0.0271606	0.00946045
-0.0198364	0.0268555	0.00701904
-0.0259399	0.0292969	0.00335693
-0.032959	0.032959	0
-0.0402832	0.0372314	-0.00305176
-0.0466919	0.0408936	-0.00579834
-0.0509644	0.0424194	-0.00854492
-0.0540161	0.0424194	-0.0115967
-0.0564575	0.0430298	-0.0134277
-0.0567627	0.0430298	-0.0137329
-0.0540161	0.039978	-0.0140381
-0.0500488	0.0357056	-0.0143433
-0.0473022	0.0326538	-0.0146484
-0.0445557	0.0292969	-0.0152588
-0.0387573	0.0241089	-0.0146484
-0.0323486	0.0189209	-0.0134277
-0.0292969	0.0161743	-0.0131226
-0.0317383	0.017395	-0.0143433
-0.0363159	0.020752	-0.015564
-0.0384521	0.0228882	-0.015564
-0.0363159	0.0238037	-0.0125122
-0.0320435	0.0244141	-0.00762939
-0.0302124	0.0259399	-0.00427246
-0.0308228	0.0268555	-0.00396729
-0.0308228	0.0259399	-0.00488281
-0.0299072	0.0253296	-0.00457764
-0.027771	0.0231934	-0.00457764
-0.022583	0.0177002	-0.00488281
-0.0183105	0.0112915	-0.00701904
-0.0201416	0.010376	-0.00976563
-0.0262451	0.0134277	-0.0128174
-0.032959	0.0158691	-0.0170898
-0.0378418	0.0164795	-0.0213623
-0.039978	0.015564	-0.0244141
-0.0418091	0.015564	-0.0262451
-0.043335	0.017395	-0.0259399
-0.043335	0.0195313	-0.0238037
-0.0439453	0.0222778	-0.0216675
-0.0448608	0.0250244	-0.0198364
-0.0445557	0.0265503	-0.0180054
-0.0430298	0.0256348	-0.017395
-0.0415039	0.0247192	-0.0167847
-0.0402832	0.0241089	-0.0161743
-0.0396729	0.0241089	-0.015564
-0.0408936	0.0250244	-0.0158691
-0.0421143	0.0259399	-0.0161743
-0.0424194	0.0250244	-0.017395
-0.0408936	0.0219727	-0.0189209
-0.0390625	0.0180054	-0.0210571
-0.0369263	0.0143433	-0.022583
-0.0350952	0.0112915	-0.0238037
-0.0360107	0.0109863	-0.0250244
-0.0366211	0.0115967	-0.0250244
-0.0354004	0.012207	-0.0231934
-0.0369263	0.015564	-0.0213623
-0.0408936	0.0204468	-0.0204468
-0.0436401	0.0241089	-0.0195313
-0.0445557	0.0262451	-0.0183105
-0.0466919	0.0289917	-0.0177002
-0.0482178	0.0311279	-0.0170898
-0.045166	0.0311279	-0.0140381
-0.0402832	0.0292969	-0.0109863
-0.0372314	0.0262451	-0.0109863
-0.03479	0.0231934	-0.0115967
-0.0326538	0.0210571	-0.0115967
-0.0350952	0.0222778	-0.0128174
-0.0405884	0.0268555	-0.0137329
-0.0485229	0.032959	-0.015564
-0.0558472	0.039978	-0.0158691
-0.0631714	0.0466919	-0.0164795
-0.0680542	0.0509644	-0.0170898
-0.0689697	0.0518799	-0.0170898
-0.0671387	0.050354	-0.0167847
-0.0643921	0.0482178	-0.0161743
-0.0598145	0.0442505	-0.015564
-0.0518799	0.0372314	-0.0146484
-0.0393677	0.0262451	-0.0131226
-0.0241089	0.0143433	-0.00976563
-0.0109863	0.00366211	-0.00732422
-0.00274658	-0.00366211	-0.00640869
0	-0.00671387	-0.00671387
-0.00152588	-0.00579834	-0.00732422
-0.00518799	-0.00305176	-0.00823975
-0.010376	0.00152588	-0.0088501
-0.0186157	0.0088501	-0.00976563
-0.027771	0.0170898	-0.0106812
-0.0350952	0.0234985	-0.0115967
-0.0396729	0.0280762	-0.0115967
-0.0424194	0.0305176	-0.0119019
-0.0439453	0.0317383	-0.012207
-0.0460815	0.032959	-0.0131226
-0.0476074	0.0344849	-0.0131226
-0.0476074	0.0350952	-0.0125122
-0.0466919	0.0354004	-0.0112915
-0.0454712	0.0354004	-0.0100708
-0.0436401	0.0341797	-0.00946045
-0.0408936	0.0326538	-0.00823975
-0.0396729	0.032959	-0.00671387
-0.0390625	0.0341797	-0.00488281
-0.0369263	0.0344849	-0.00244141
-0.0332642	0.0326538	-0.000610352
-0.027771	0.0289917	0.0012207
-0.0250244	0.027771	0.00274658
-0.0268555	0.0299072	0.00305176
-0.0296021	0.0323486	0.00274658
-0.0332642	0.0344849	0.0012207
-0.0387573	0.0375366	-0.0012207
-0.0421143	0.0393677	-0.00274658
-0.0436401	0.0396729	-0.00396729
-0.0460815	0.0418091	-0.00427246
-0.0491333	0.0448608	-0.00427246
-0.0497437	0.0454712	-0.00427246
-0.0494385	0.0442505	-0.00518799
-0.0521851	0.0460815	-0.00610352
-0.0552368	0.0491333	-0.00610352
-0.0552368	0.0500488	-0.00518799
-0.0506592	0.0482178	-0.00244141
-0.0421143	0.0448608	0.00274658
-0.0323486	0.0415039	0.00915527
-0.0250244	0.0387573	0.0137329
-0.0198364	0.0354004	0.015564
-0.0140381	0.0308228	0.0167847
-0.00610352	0.0247192	0.0186157
0.00244141	0.0180054	0.0204468
0.0115967	0.0115967	0.0231934
0.0180054	0.00732422	0.0253296
0.0210571	0.00457764	0.0256348
0.0201416	0.00427246	0.0244141
0.0158691	0.00579834	0.0216675
0.0106812	0.0088501	0.0195313
0.00549316	0.0134277	0.0189209
-0.000305176	0.0192261	0.0189209
-0.00610352	0.0262451	0.0201416
-0.010376	0.0323486	0.0219727
-0.012207	0.0357056	0.0234985
-0.0128174	0.038147	0.0253296
-0.0128174	0.0408936	0.0280762
-0.0119019	0.043335	0.0314331
-0.0112915	0.0448608	0.0335693
-0.0125122	0.0473022	0.03479
-0.0128174	0.050354	0.0375366
-0.0112915	0.0527954	0.0415039
-0.00823975	0.0531006	0.0448608
-0.00518799	0.0521851	0.0469971
-0.00305176	0.0512695	0.0482178
0.000610352	0.0488281	0.0494385
0.00701904	0.0442505	0.0512695
0.0112915	0.0418091	0.0531006
0.0131226	0.0411987	0.0543213
0.0140381	0.039978	0.0540161
0.0158691	0.0375366	0.0534058
0.0170898	0.0354004	0.0524902
0.017395	0.0354004	0.0527954
0.0152588	0.038147	0.0534058
0.012207	0.0424194	0.0546265
0.00976563	0.0457764	0.055542
0.00915527	0.0469971	0.0561523
0.00976563	0.0476074	0.057373
0.00793457	0.0509644	0.0588989
0.00488281	0.0549316	0.0598145
0.00366211	0.055542	0.0592041
0.00396729	0.0521851	0.0561523
0.00549316	0.0469971	0.0524902
0.00976563	0.0402832	0.0500488
0.0161743	0.0320435	0.0482178
0.022583	0.0234985	0.0460815
0.0286865	0.0146484	0.043335
0.0326538	0.00793457	0.0405884
0.032959	0.00549316	0.0384521
0.0320435	0.00488281	0.0369263
0.0311279	0.00396729	0.0350952
0.0302124	0.00244141	0.0326538
0.0271606	0.00152588	0.0286865
0.0213623	0.00152588	0.0228882
0.0125122	0.00213623	0.0146484
0.00244141	0.00244141	0.00488281
-0.00701904	0.0012207	-0.00579834
-0.0131226	-0.00213623	-0.0152588
-0.0161743	-0.00701904	-0.0231934
-0.0161743	-0.0134277	-0.0296021
-0.0158691	-0.0180054	-0.0338745
-0.0201416	-0.0158691	-0.0360107
-0.0268555	-0.00976563	-0.0366211
-0.0305176	-0.00488281	-0.0354004
-0.0326538	-0.000610352	-0.0332642
-0.0344849	0.00396729	-0.0305176
-0.0354004	0.00762939	-0.027771
-0.0363159	0.0106812	-0.0256348
-0.0378418	0.0128174	-0.0250244
-0.0390625	0.0143433	-0.0247192
-0.0384521	0.0143433	-0.0241089
-0.0335693	0.0109863	-0.022583
-0.027771	0.00488281	-0.0228882
-0.0250244	-0.0012207	-0.0262451
-0.0228882	-0.00549316	-0.0283813
-0.0183105	-0.00701904	-0.0253296
-0.0143433	-0.00427246	-0.0186157
-0.0134277	0.000305176	-0.0131226
-0.0158691	0.00518799	-0.0106812
-0.0186157	0.0088501	-0.00976563
-0.0204468	0.0115967	-0.0088501
-0.0231934	0.0146484	-0.00854492
-0.0259399	0.0164795	-0.00946045
-0.0296021	0.0164795	-0.0131226
-0.0357056	0.0161743	-0.0195313
-0.0415039	0.0152588	-0.0262451
-0.0466919	0.0131226	-0.0335693
-0.0540161	0.010376	-0.0436401
-0.0610352	0.00610352	-0.0549316
-0.0616455	-0.00152588	-0.0631714
-0.0546265	-0.00976563	-0.0643921
-0.0405884	-0.0161743	-0.0567627
-0.0219727	-0.0195313	-0.0415039
0.00152588	-0.0195313	-0.0180054
0.0286865	-0.0137329	0.0149536
0.0582886	0.000610352	0.0588989
0.0939941	0.022583	0.116577
0.137329	0.0497437	0.187073
0.184937	0.083313	0.26825
0.229187	0.125122	0.354309
0.265503	0.174561	0.440063
0.292664	0.229187	0.521851
0.307007	0.28656	0.593567
0.304565	0.343628	0.648193
0.284119	0.393982	0.678101
0.248108	0.431519	0.679626
0.197754	0.454407	0.652161
0.133972	0.464478	0.59845
0.0582886	0.462646	0.520935
-0.0213623	0.445557	0.424194
-0.0949097	0.409546	0.314636
-0.155945	0.357666	0.201721
-0.202332	0.296631	0.0942993
-0.231323	0.230713	-0.000610352
-0.241699	0.163269	-0.0784302
-0.234985	0.0979614	-0.137024
-0.21698	0.0408936	-0.176086
-0.191956	-0.00366211	-0.195618
-0.160828	-0.038147	-0.198975
-0.125732	-0.0637817	-0.189514
-0.0946045	-0.078125	-0.172729
-0.0723267	-0.0799561	-0.152283
-0.057373	-0.0741577	-0.131531
-0.0460815	-0.0656128	-0.111694
-0.0378418	-0.0567627	-0.0946045
-0.0332642	-0.0479126	-0.0811768
-0.0323486	-0.0384521	-0.0708008
-0.032959	-0.0299072	-0.0628662
-0.0335693	-0.0231934	-0.0567627
-0.0332642	-0.0189209	-0.0521851
-0.0320435	-0.0167847	-0.0488281
-0.0308228	-0.0152588	-0.0460815
-0.0305176	-0.0137329	-0.0442505
-0.032959	-0.010376	-0.043335
-0.0375366	-0.00640869	-0.0439453
-0.0421143	-0.00366211	-0.0457764
-0.0457764	-0.00183105	-0.0476074
-0.0473022	-0.00152588	-0.0488281
-0.0448608	-0.00366211	-0.0485229
-0.0405884	-0.00732422	-0.0479126
-0.0369263	-0.010376	-0.0473022
-0.0323486	-0.0128174	-0.045166
-0.0259399	-0.0152588	-0.0411987
-0.0213623	-0.0164795	-0.0378418
-0.0177002	-0.0164795	-0.0341797
-0.0125122	-0.0177002	-0.0302124
-0.00518799	-0.0213623	-0.0265503
0.00183105	-0.0253296	-0.0234985
0.00518799	-0.0262451	-0.0210571
0.00427246	-0.0247192	-0.0204468
0.000610352	-0.0219727	-0.0213623
-0.00457764	-0.0195313	-0.0241089
-0.00701904	-0.0177002	-0.0247192
-0.00762939	-0.0152588	-0.0228882
-0.0088501	-0.0128174	-0.0216675
-0.0125122	-0.010376	-0.0228882
-0.0177002	-0.00732422	-0.0250244
-0.0216675	-0.00518799	-0.0268555
-0.0228882	-0.00488281	-0.027771
-0.0222778	-0.00579834	-0.0280762
-0.0228882	-0.00549316	-0.0283813
-0.0228882	-0.00640869	-0.0292969
-0.0210571	-0.00823975	-0.0292969
-0.0198364	-0.00946045	-0.0292969
-0.0192261	-0.0100708	-0.0292969
-0.017395	-0.0112915	-0.0286865
-0.015564	-0.0119019	-0.0274658
-0.0137329	-0.0119019	-0.0256348
-0.0128174	-0.0112915	-0.0241089
-0.0119019	-0.0106812	-0.022583
-0.00946045	-0.012207	-0.0216675
-0.00549316	-0.0161743	-0.0216675
-0.000915527	-0.0204468	-0.0213623
0.00183105	-0.0228882	-0.0210571
0.00335693	-0.0241089	-0.020752
0.00457764	-0.0250244	-0.0204468
0.00610352	-0.0256348	-0.0195313
0.00610352	-0.0253296	-0.0192261
0.00427246	-0.0231934	-0.0189209
0.00152588	-0.0210571	-0.0195313
0.000610352	-0.0198364	-0.0192261
0.00244141	-0.0198364	-0.017395
0.00579834	-0.020752	-0.0149536
0.00946045	-0.0216675	-0.012207
0.0140381	-0.0234985	-0.00946045
0.0204468	-0.0280762	-0.00762939
0.0302124	-0.0350952	-0.00488281
0.0405884	-0.0411987	-0.000610352
0.0463867	-0.0418091	0.00457764
0.0491333	-0.0387573	0.010376
0.0537109	-0.0375366	0.0161743
0.0582886	-0.038147	0.0201416
0.0592041	-0.0378418	0.0213623
0.0588989	-0.0363159	0.022583
0.0616455	-0.0350952	0.0265503
0.0650024	-0.0335693	0.0314331
0.0665283	-0.0317383	0.03479
0.0680542	-0.0311279	0.0369263
0.0732422	-0.032959	0.0402832
0.0814819	-0.0357056	0.0457764
0.0897217	-0.0384521	0.0512695
0.0958252	-0.0402832	0.055542
0.0979614	-0.038147	0.0598145
0.0976563	-0.0341797	0.0634766
0.098877	-0.0320435	0.0668335
0.103149	-0.0326538	0.0704956
0.107727	-0.0338745	0.0738525
0.110474	-0.0338745	0.0765991
0.11261	-0.0335693	0.0790405
0.116577	-0.0335693	0.0830078
0.12207	-0.0344849	0.0875854
0.127563	-0.03479	0.0927734
0.133057	-0.0354004	0.0976563
0.137939	-0.0363159	0.101624
0.140076	-0.0354004	0.104675
0.141602	-0.0338745	0.107727
0.146484	-0.0335693	0.112915
0.153198	-0.0332642	0.119934
0.156555	-0.0317383	0.124817
0.15625	-0.0289917	0.127258
0.154724	-0.0259399	0.128784
0.154724	-0.0241089	0.130615
0.157166	-0.0241089	0.133057
0.159302	-0.0238037	0.135498
0.155945	-0.0186157	0.137329
0.148315	-0.010376	0.137939
0.140381	-0.00305176	0.137329
0.132751	0.00274658	0.135498
0.125122	0.00793457	0.133057
0.117493	0.012207	0.1297
0.110474	0.015564	0.126038
0.102844	0.0186157	0.12146
0.0949097	0.0210571	0.115967
0.0881958	0.0210571	0.109253
0.0842285	0.0189209	0.103149
0.0827026	0.0146484	0.0973511
0.0805664	0.00976563	0.090332
0.0769043	0.00488281	0.0817871
0.0698853	0.00274658	0.0726318
0.06073	0.00244141	0.0631714
0.0506592	0.00335693	0.0540161
0.0396729	0.00518799	0.0448608
0.0283813	0.00762939	0.0360107
0.0177002	0.00946045	0.0271606
0.00701904	0.0109863	0.0180054
-0.00335693	0.012207	0.0088501
-0.015564	0.0164795	0.000915527
-0.0271606	0.0204468	-0.00671387
-0.0320435	0.0195313	-0.0125122
-0.0299072	0.0146484	-0.0152588
-0.0241089	0.0100708	-0.0140381
-0.020752	0.00640869	-0.0143433
-0.0192261	0.00396729	-0.0152588
-0.017395	0.00244141	-0.0149536
-0.0149536	0.000610352	-0.0143433
-0.0115967	-0.00244141	-0.0140381
-0.0100708	-0.00274658	-0.0128174
-0.0140381	0.00213623	-0.0119019
-0.0201416	0.00732422	-0.0128174
-0.0234985	0.00823975	-0.0152588
-0.0265503	0.00823975	-0.0183105
-0.0302124	0.00854492	-0.0216675
-0.0326538	0.00732422	-0.0253296
-0.0326538	0.00366211	-0.0289917
-0.0311279	-0.00183105	-0.032959
-0.0289917	-0.00793457	-0.0369263
-0.0259399	-0.0137329	-0.0396729
-0.0228882	-0.0189209	-0.0418091
-0.0198364	-0.0234985	-0.043335
-0.0170898	-0.0265503	-0.0436401
-0.0164795	-0.0271606	-0.0436401
-0.0177002	-0.0262451	-0.0439453
-0.0192261	-0.0241089	-0.043335
-0.0213623	-0.0210571	-0.0424194
-0.0241089	-0.0177002	-0.0418091
-0.0274658	-0.0137329	-0.0411987
-0.0302124	-0.0115967	-0.0418091
-0.0314331	-0.010376	-0.0418091
-0.0326538	-0.0100708	-0.0427246
-0.0341797	-0.0100708	-0.0442505
-0.0360107	-0.00976563	-0.0457764
-0.038147	-0.00915527	-0.0473022
-0.0390625	-0.00823975	-0.0473022
-0.0366211	-0.00915527	-0.0457764
-0.03479	-0.00915527	-0.0439453
-0.0357056	-0.00671387	-0.0424194
-0.0372314	-0.00396729	-0.0411987
-0.0363159	-0.00396729	-0.0402832
-0.032959	-0.00701904	-0.039978
-0.0292969	-0.00946045	-0.0387573
-0.0271606	-0.010376	-0.0375366
-0.0262451	-0.0109863	-0.0372314
-0.0265503	-0.010376	-0.0369263
-0.0280762	-0.0088501	-0.0369263
-0.0289917	-0.00793457	-0.0369263
-0.0292969	-0.00732422	-0.0366211
-0.0296021	-0.00610352	-0.0357056
-0.0317383	-0.00335693	-0.0350952
-0.0350952	0.000610352	-0.0344849
-0.038147	0.00427246	-0.0338745
-0.0411987	0.00732422	-0.0338745
-0.0473022	0.0128174	-0.0344849
-0.0552368	0.0183105	-0.0369263
-0.0595093	0.0201416	-0.0393677
-0.0592041	0.0170898	-0.0421143
-0.0537109	0.012207	-0.0415039
-0.0473022	0.00732422	-0.039978
-0.0415039	0.00335693	-0.038147
-0.0338745	-0.00213623	-0.0360107
-0.0241089	-0.00946045	-0.0335693
-0.0134277	-0.017395	-0.0308228
-0.00335693	-0.0244141	-0.027771
0.00518799	-0.0302124	-0.0250244
0.0119019	-0.0344849	-0.022583
0.015564	-0.0369263	-0.0213623
0.015564	-0.0366211	-0.0210571
0.0125122	-0.0344849	-0.0219727
0.00732422	-0.0314331	-0.0241089
0.0012207	-0.027771	-0.0265503
-0.00549316	-0.0231934	-0.0286865
-0.0137329	-0.0186157	-0.0323486
-0.0195313	-0.0143433	-0.0338745
-0.0201416	-0.0125122	-0.0326538
-0.0186157	-0.0109863	-0.0296021
-0.0192261	-0.00823975	-0.0274658
-0.0231934	-0.00396729	-0.0271606
-0.0265503	-0.00152588	-0.0280762
-0.0268555	-0.00213623	-0.0289917
-0.0250244	-0.00427246	-0.0292969
-0.0234985	-0.00610352	-0.0296021
-0.022583	-0.0088501	-0.0314331
-0.0216675	-0.0119019	-0.0335693
-0.0210571	-0.0146484	-0.0357056
-0.0213623	-0.0167847	-0.038147
-0.020752	-0.0192261	-0.039978
-0.0180054	-0.0228882	-0.0408936
-0.0143433	-0.0268555	-0.0411987
-0.0115967	-0.0286865	-0.0402832
-0.0109863	-0.0283813	-0.0393677
-0.010376	-0.0280762	-0.0384521
-0.00946045	-0.0286865	-0.038147
-0.0106812	-0.0280762	-0.0387573
-0.0125122	-0.027771	-0.0402832
-0.0146484	-0.0289917	-0.0436401
-0.0189209	-0.0292969	-0.0482178
-0.0244141	-0.027771	-0.0521851
-0.0311279	-0.0244141	-0.055542
-0.0393677	-0.0201416	-0.0595093
-0.045166	-0.017395	-0.062561
-0.0466919	-0.015564	-0.0622559
-0.0463867	-0.0143433	-0.06073
-0.045166	-0.0128174	-0.0579834
-0.0439453	-0.0112915	-0.0552368
-0.0421143	-0.00976563	-0.0518799
-0.0387573	-0.00915527	-0.0479126
-0.0344849	-0.010376	-0.0448608
-0.0289917	-0.0128174	-0.0418091
-0.0241089	-0.0161743	-0.0402832
-0.0201416	-0.0195313	-0.0396729
-0.0183105	-0.0219727	-0.0402832
-0.0201416	-0.0222778	-0.0424194
-0.0253296	-0.0219727	-0.0473022
-0.0332642	-0.0198364	-0.0531006
-0.0393677	-0.0183105	-0.0576782
-0.0396729	-0.020752	-0.0604248
-0.0366211	-0.0241089	-0.06073
-0.0344849	-0.0265503	-0.0610352
-0.0350952	-0.0271606	-0.0622559
-0.0360107	-0.0265503	-0.062561
-0.0344849	-0.0265503	-0.0610352
-0.0311279	-0.0274658	-0.0585938
-0.0274658	-0.027771	-0.0552368
-0.0247192	-0.0271606	-0.0518799
-0.0231934	-0.0250244	-0.0482178
-0.0241089	-0.0213623	-0.0454712
-0.0259399	-0.0170898	-0.0430298
-0.0271606	-0.0137329	-0.0408936
-0.0292969	-0.0109863	-0.0402832
-0.0323486	-0.00823975	-0.0405884
-0.0360107	-0.00610352	-0.0421143
-0.0384521	-0.00427246	-0.0427246
-0.0387573	-0.00427246	-0.0430298
-0.0387573	-0.00549316	-0.0442505
-0.0390625	-0.00762939	-0.0466919
-0.0384521	-0.00915527	-0.0476074
-0.038147	-0.00915527	-0.0473022
-0.0384521	-0.00823975	-0.0466919
-0.0393677	-0.00671387	-0.0460815
-0.0415039	-0.00335693	-0.0448608
-0.0427246	-0.000305176	-0.0430298
-0.0411987	0.000305176	-0.0408936
-0.0402832	0.0012207	-0.0390625
-0.0415039	0.00396729	-0.0375366
-0.0445557	0.00762939	-0.0369263
-0.0466919	0.00946045	-0.0372314
-0.0460815	0.00762939	-0.0384521
-0.0424194	0.00305176	-0.0393677
-0.038147	-0.00152588	-0.0396729
-0.0354004	-0.00396729	-0.0393677
-0.0372314	-0.00305176	-0.0402832
-0.0402832	-0.000915527	-0.0411987
-0.0384521	-0.00305176	-0.0415039
-0.0305176	-0.0100708	-0.0405884
-0.0250244	-0.0140381	-0.0390625
-0.0274658	-0.00976563	-0.0372314
-0.0308228	-0.00396729	-0.03479
-0.0326538	-0.000305176	-0.032959
-0.03479	0.00213623	-0.0326538
-0.0338745	0.00183105	-0.0320435
-0.0299072	-0.000610352	-0.0305176
-0.0250244	-0.00366211	-0.0286865
-0.0195313	-0.00762939	-0.0271606
-0.0149536	-0.0119019	-0.0268555
-0.012207	-0.0143433	-0.0265503
-0.00946045	-0.0158691	-0.0253296
-0.00732422	-0.0164795	-0.0238037
-0.00488281	-0.0183105	-0.0231934
-0.00274658	-0.0204468	-0.0231934
-0.00183105	-0.020752	-0.022583
-0.00427246	-0.0189209	-0.0231934
-0.00854492	-0.0158691	-0.0244141
-0.0109863	-0.0125122	-0.0234985
-0.0112915	-0.00976563	-0.0210571
-0.0109863	-0.00915527	-0.0201416
-0.00976563	-0.00976563	-0.0195313
-0.00610352	-0.0112915	-0.017395
-0.00366211	-0.0131226	-0.0167847
-0.00244141	-0.0143433	-0.0167847
-0.000915527	-0.0149536	-0.0158691
0	-0.0146484	-0.0146484
0.000915527	-0.0149536	-0.0140381
0.00183105	-0.0161743	-0.0143433
0.0012207	-0.0164795	-0.0152588
-0.00244141	-0.0140381	-0.0164795
-0.00701904	-0.010376	-0.017395
-0.0100708	-0.00762939	-0.0177002
-0.0119019	-0.00610352	-0.0180054
-0.0131226	-0.00427246	-0.017395
-0.015564	-0.0012207	-0.0167847
-0.0177002	0.00183105	-0.0158691
-0.015564	0.00183105	-0.0137329
-0.00946045	-0.000915527	-0.010376
-0.00640869	-0.00183105	-0.00823975
-0.00701904	-0.000915527	-0.00793457
-0.00823975	-0.000915527	-0.00915527
-0.0088501	-0.000915527	-0.00976563
-0.00946045	0.000915527	-0.00854492
-0.010376	0.00396729	-0.00640869
-0.0119019	0.00762939	-0.00427246
-0.012207	0.0088501	-0.00335693
-0.0100708	0.00701904	-0.00305176
-0.00671387	0.00427246	-0.00244141
-0.00213623	0.0012207	-0.000915527
0.00488281	-0.00305176	0.00183105
0.0143433	-0.00915527	0.00518799
0.0247192	-0.0170898	0.00762939
0.0344849	-0.0253296	0.00915527
0.0430298	-0.0332642	0.00976563
0.0485229	-0.0393677	0.00915527
0.0500488	-0.0411987	0.0088501
0.0476074	-0.0378418	0.00976563
0.0430298	-0.0311279	0.0119019
0.0384521	-0.0241089	0.0143433
0.03479	-0.0186157	0.0161743
0.0320435	-0.0143433	0.0177002
0.0296021	-0.010376	0.0192261
0.027771	-0.00640869	0.0213623
0.0271606	-0.00244141	0.0247192
0.0296021	-0.000915527	0.0286865
0.0338745	-0.00152588	0.0323486
0.038147	-0.00305176	0.0350952
0.0408936	-0.00396729	0.0369263
0.0415039	-0.00335693	0.038147
0.0415039	-0.00213623	0.0393677
0.0424194	-0.00183105	0.0405884
0.0436401	-0.00213623	0.0415039
0.0442505	-0.00213623	0.0421143
0.0454712	-0.00274658	0.0427246
0.0466919	-0.00396729	0.0427246
0.0485229	-0.00518799	0.043335
0.0497437	-0.00640869	0.043335
0.0482178	-0.00610352	0.0421143
0.0448608	-0.00335693	0.0415039
0.0463867	-0.00335693	0.0430298
0.0524902	-0.00579834	0.0466919
0.0546265	-0.00579834	0.0488281
0.0531006	-0.00274658	0.050354
0.0527954	0.000915527	0.0537109
0.0527954	0.00457764	0.057373
0.0537109	0.00762939	0.0613403
0.0537109	0.0109863	0.0646973
0.0497437	0.0186157	0.0683594
0.0408936	0.0314331	0.0723267
0.0320435	0.0448608	0.0769043
0.0271606	0.0546265	0.0817871
0.0265503	0.0595093	0.0860596
0.0283813	0.0613403	0.0897217
0.0308228	0.0619507	0.0927734
0.0341797	0.0613403	0.09552
0.0408936	0.0561523	0.0970459
0.0509644	0.0460815	0.0970459
0.0643921	0.032959	0.0973511
0.0784302	0.0189209	0.0973511
0.090332	0.00579834	0.0961304
0.0985718	-0.00518799	0.0933838
0.0994873	-0.00946045	0.0900269
0.0918579	-0.00549316	0.0863647
0.0823975	0.000305176	0.0827026
0.0735474	0.00488281	0.0784302
0.0656128	0.00854492	0.0741577
0.0576782	0.0115967	0.0692749
0.0494385	0.0152588	0.0646973
0.0415039	0.0183105	0.0598145
0.0357056	0.0183105	0.0540161
0.0320435	0.0149536	0.0469971
0.0292969	0.0100708	0.0393677
0.0274658	0.00488281	0.0323486
0.0271606	0	0.0271606
0.027771	-0.00305176	0.0247192
0.0271606	-0.00366211	0.0234985
0.0259399	-0.00274658	0.0231934
0.0244141	-0.0012207	0.0231934
0.0222778	0.00152588	0.0238037
0.0192261	0.00701904	0.0262451
0.0186157	0.0112915	0.0299072
0.0222778	0.0115967	0.0338745
0.0271606	0.00946045	0.0366211
0.0302124	0.00823975	0.0384521
0.0299072	0.00854492	0.0384521
0.0259399	0.0119019	0.0378418
0.0216675	0.0158691	0.0375366
0.0201416	0.0167847	0.0369263
0.0204468	0.0152588	0.0357056
0.0198364	0.0137329	0.0335693
0.0186157	0.0131226	0.0317383
0.0177002	0.012207	0.0299072
0.0186157	0.0112915	0.0299072
0.0180054	0.0119019	0.0299072
0.0140381	0.0167847	0.0308228
0.00915527	0.0219727	0.0311279
0.0100708	0.0210571	0.0311279
0.0180054	0.0140381	0.0320435
0.0253296	0.00823975	0.0335693
0.0265503	0.00701904	0.0335693
0.0241089	0.00793457	0.0320435
0.0216675	0.0088501	0.0305176
0.0213623	0.00671387	0.0280762
0.0231934	0.00152588	0.0247192
0.0234985	-0.00335693	0.0201416
0.0216675	-0.00579834	0.0158691
0.0222778	-0.00823975	0.0140381
0.027771	-0.0106812	0.0170898
0.0372314	-0.0115967	0.0256348
0.0479126	-0.00640869	0.0415039
0.0622559	0.00701904	0.0692749
0.0827026	0.0271606	0.109863
0.111084	0.0512695	0.162354
0.14801	0.0784302	0.22644
0.194397	0.108948	0.303345
0.244446	0.144043	0.388489
0.290527	0.185242	0.475769
0.328064	0.231934	0.559998
0.354004	0.280457	0.63446
0.366211	0.325317	0.691528
0.361938	0.362549	0.724487
0.33905	0.390625	0.729675
0.296936	0.409851	0.706787
0.237732	0.419006	0.656738
0.1651	0.416565	0.581665
0.0869751	0.39978	0.486755
0.010376	0.369263	0.379639
-0.0601196	0.325928	0.265808
-0.117798	0.273132	0.155334
-0.158691	0.215759	0.0570679
-0.180054	0.155945	-0.0241089
-0.183105	0.0961304	-0.0869751
-0.171509	0.0408936	-0.130615
-0.149231	-0.00610352	-0.155334
-0.118713	-0.0436401	-0.162354
-0.0863647	-0.0695801	-0.155945
-0.057373	-0.0827026	-0.140076
-0.0363159	-0.0839233	-0.120239
-0.0216675	-0.0762939	-0.0979614
-0.010376	-0.0646973	-0.0750732
-0.00274658	-0.0512695	-0.0540161
0	-0.0372314	-0.0372314
-0.0012207	-0.022583	-0.0238037
-0.00488281	-0.00823975	-0.0131226
-0.00793457	0.00305176	-0.00488281
-0.00823975	0.00915527	0.000915527
-0.00854492	0.0131226	0.00457764
-0.0119019	0.0186157	0.00671387
-0.0140381	0.0216675	0.00762939
-0.010376	0.0177002	0.00732422
-0.00213623	0.00915527	0.00701904
0.00488281	0.00152588	0.00640869
0.00854492	-0.00213623	0.00640869
0.00946045	-0.00274658	0.00671387
0.0106812	-0.00366211	0.00701904
0.0143433	-0.00671387	0.00762939
0.0195313	-0.0109863	0.00854492
0.0247192	-0.0146484	0.0100708
0.0271606	-0.015564	0.0115967
0.0256348	-0.0119019	0.0137329
0.020752	-0.00549316	0.0152588
0.0158691	0.000610352	0.0164795
0.0125122	0.00457764	0.0170898
0.0106812	0.00701904	0.0177002
0.0115967	0.00793457	0.0195313
0.015564	0.00793457	0.0234985
0.0195313	0.00793457	0.0274658
0.0228882	0.00732422	0.0302124
0.0262451	0.00671387	0.032959
0.0289917	0.00671387	0.0357056
0.0302124	0.00823975	0.0384521
0.0299072	0.0106812	0.0405884
0.0286865	0.0125122	0.0411987
0.0265503	0.0143433	0.0408936
0.0256348	0.0152588	0.0408936
0.0256348	0.0149536	0.0405884
0.0250244	0.0149536	0.039978
0.0210571	0.0167847	0.0378418
0.0158691	0.0192261	0.0350952
0.0146484	0.0189209	0.0335693
0.0183105	0.015564	0.0338745
0.0213623	0.0131226	0.0344849
0.020752	0.0131226	0.0338745
0.0180054	0.0152588	0.0332642
0.0158691	0.0152588	0.0311279
0.0164795	0.0131226	0.0296021
0.0134277	0.0161743	0.0296021
0.00701904	0.0216675	0.0286865
0.00274658	0.0244141	0.0271606
0.00183105	0.0247192	0.0265503
0.00366211	0.0234985	0.0271606
0.00732422	0.0219727	0.0292969
0.0112915	0.0204468	0.0317383
0.0137329	0.0201416	0.0338745
0.0167847	0.0186157	0.0354004
0.0195313	0.0161743	0.0357056
0.0183105	0.0170898	0.0354004
0.0189209	0.0164795	0.0354004
0.0244141	0.0115967	0.0360107
0.0320435	0.00488281	0.0369263
0.0396729	-0.00213623	0.0375366
0.0473022	-0.00915527	0.038147
0.0540161	-0.015564	0.0384521
0.0613403	-0.0213623	0.039978
0.0692749	-0.0271606	0.0421143
0.0775146	-0.0320435	0.0454712
0.0845337	-0.0354004	0.0491333
0.0888062	-0.0360107	0.0527954
0.0894165	-0.0335693	0.0558472
0.0869751	-0.0286865	0.0582886
0.0823975	-0.0219727	0.0604248
0.0765991	-0.0140381	0.062561
0.0714111	-0.00671387	0.0646973
0.0683594	-0.0012207	0.0671387
0.067749	0.00213623	0.0698853
0.0689697	0.00396729	0.072937
0.0720215	0.00488281	0.0769043
0.0778198	0.00335693	0.0811768
0.0866699	-0.000610352	0.0860596
0.0949097	-0.00427246	0.0906372
0.101013	-0.00579834	0.0952148
0.107422	-0.00732422	0.100098
0.112915	-0.00762939	0.105286
0.117493	-0.00701904	0.110474
0.119629	-0.00427246	0.115356
0.118713	0.000610352	0.119324
0.118408	0.00488281	0.123291
0.118103	0.00854492	0.126648
0.117188	0.0128174	0.130005
0.115967	0.0167847	0.132751
0.117188	0.0186157	0.135803
0.119934	0.0189209	0.138855
0.120239	0.0219727	0.142212
0.118103	0.0268555	0.144958
0.118408	0.0289917	0.1474
0.122986	0.0268555	0.149841
0.129395	0.0234985	0.152893
0.134888	0.020752	0.15564
0.140076	0.0180054	0.158081
0.143738	0.0161743	0.159912
0.144348	0.0167847	0.161133
0.143738	0.017395	0.161133
0.141907	0.0180054	0.159912
0.140381	0.0189209	0.159302
0.13855	0.0201416	0.158691
0.134888	0.0231934	0.158081
0.128174	0.027771	0.155945
0.121155	0.0320435	0.153198
0.115662	0.0350952	0.150757
0.110168	0.0366211	0.14679
0.103455	0.0378418	0.141296
0.0979614	0.0372314	0.135193
0.0942993	0.0341797	0.128479
0.0900269	0.0296021	0.119629
0.0836182	0.0256348	0.109253
0.0769043	0.022583	0.0994873
0.071106	0.0204468	0.0915527
0.0631714	0.0192261	0.0823975
0.0518799	0.0186157	0.0704956
0.0408936	0.0183105	0.0592041
0.032959	0.0186157	0.0515747
0.0283813	0.0195313	0.0479126
0.0247192	0.0213623	0.0460815
0.0198364	0.0222778	0.0421143
0.0161743	0.020752	0.0369263
0.0140381	0.017395	0.0314331
0.0119019	0.0140381	0.0259399
0.00854492	0.0119019	0.0204468
0.00396729	0.0112915	0.0152588
-0.00244141	0.0125122	0.0100708
-0.00946045	0.0137329	0.00427246
-0.0183105	0.0161743	-0.00213623
-0.0299072	0.0201416	-0.00976563
-0.0439453	0.0274658	-0.0164795
-0.0567627	0.0354004	-0.0213623
-0.065918	0.0415039	-0.0244141
-0.0704956	0.0439453	-0.0265503
-0.0714111	0.0442505	-0.0271606
-0.071106	0.0436401	-0.0274658
-0.0695801	0.0421143	-0.0274658
-0.0656128	0.038147	-0.0274658
-0.0613403	0.032959	-0.0283813
-0.0592041	0.0283813	-0.0308228
-0.0585938	0.0253296	-0.0332642
-0.0588989	0.0231934	-0.0357056
-0.0588989	0.0222778	-0.0366211
-0.0576782	0.0210571	-0.0366211
-0.0564575	0.0198364	-0.0366211
-0.055542	0.0189209	-0.0366211
-0.0552368	0.0189209	-0.0363159
-0.0546265	0.0195313	-0.0350952
-0.050354	0.0170898	-0.0332642
-0.0418091	0.0106812	-0.0311279
-0.0332642	0.00396729	-0.0292969
-0.0274658	-0.000610352	-0.0280762
-0.0253296	-0.00274658	-0.0280762
-0.0265503	-0.00244141	-0.0289917
-0.0292969	-0.0012207	-0.0305176
-0.0317383	0.000610352	-0.0311279
-0.0332642	0.00152588	-0.0317383
-0.0338745	0.000610352	-0.0332642
-0.0363159	0.0012207	-0.0350952
-0.0427246	0.00579834	-0.0369263
-0.0476074	0.00915527	-0.0384521
-0.0479126	0.0100708	-0.0378418
-0.0457764	0.00915527	-0.0366211
-0.0436401	0.00823975	-0.0354004
-0.0427246	0.00732422	-0.0354004
-0.0424194	0.00732422	-0.0350952
-0.0445557	0.0100708	-0.0344849
-0.0479126	0.0143433	-0.0335693
-0.050354	0.0180054	-0.0323486
-0.0497437	0.0189209	-0.0308228
-0.0479126	0.0189209	-0.0289917
-0.0466919	0.0192261	-0.0274658
-0.0466919	0.0204468	-0.0262451
-0.0457764	0.0201416	-0.0256348
-0.043335	0.0180054	-0.0253296
-0.0402832	0.0143433	-0.0259399
-0.0372314	0.010376	-0.0268555
-0.0354004	0.00671387	-0.0286865
-0.0338745	0.00427246	-0.0296021
-0.0289917	0.00213623	-0.0268555
-0.0247192	0.00213623	-0.022583
-0.0247192	0.00457764	-0.0201416
-0.0271606	0.00732422	-0.0198364
-0.0296021	0.00946045	-0.0201416
-0.0323486	0.0115967	-0.020752
-0.0350952	0.0137329	-0.0213623
-0.0378418	0.0158691	-0.0219727
-0.0393677	0.0164795	-0.0228882
-0.0427246	0.0177002	-0.0250244
-0.0479126	0.0186157	-0.0292969
-0.0518799	0.0186157	-0.0332642
-0.0534058	0.0164795	-0.0369263
-0.0524902	0.0137329	-0.0387573
-0.0537109	0.0140381	-0.0396729
-0.0570679	0.0177002	-0.0393677
-0.0570679	0.0189209	-0.038147
-0.0527954	0.0164795	-0.0363159
-0.0494385	0.0143433	-0.0350952
-0.0469971	0.012207	-0.03479
-0.043335	0.00854492	-0.03479
-0.0384521	0.00427246	-0.0341797
-0.0350952	0.0012207	-0.0338745
-0.0320435	-0.00244141	-0.0344849
-0.0283813	-0.00671387	-0.0350952
-0.0262451	-0.0100708	-0.0363159
-0.0271606	-0.0100708	-0.0372314
-0.0283813	-0.00823975	-0.0366211
-0.0296021	-0.00549316	-0.0350952
-0.0289917	-0.00305176	-0.0320435
-0.0271606	-0.00213623	-0.0292969
-0.0268555	-0.0012207	-0.0280762
-0.0280762	-0.000610352	-0.0286865
-0.0283813	-0.0012207	-0.0296021
-0.0265503	-0.00305176	-0.0296021
-0.0247192	-0.00427246	-0.0289917
-0.0234985	-0.00640869	-0.0299072
-0.0231934	-0.00976563	-0.032959
-0.0262451	-0.00946045	-0.0357056
-0.0311279	-0.00640869	-0.0375366
-0.0344849	-0.00335693	-0.0378418
-0.0354004	-0.00244141	-0.0378418
-0.03479	-0.00213623	-0.0369263
-0.0344849	-0.000610352	-0.0350952
-0.0350952	0.00213623	-0.032959
-0.0338745	0.00305176	-0.0308228
-0.0296021	0.000915527	-0.0286865
-0.0244141	-0.00274658	-0.0271606
-0.0189209	-0.00762939	-0.0265503
-0.0143433	-0.0131226	-0.0274658
-0.0119019	-0.0170898	-0.0289917
-0.012207	-0.0189209	-0.0311279
-0.0143433	-0.0189209	-0.0332642
-0.0164795	-0.0201416	-0.0366211
-0.0183105	-0.0213623	-0.0396729
-0.0228882	-0.0192261	-0.0421143
-0.0289917	-0.0152588	-0.0442505
-0.0350952	-0.0106812	-0.0457764
-0.0411987	-0.00579834	-0.0469971
-0.0466919	-0.000915527	-0.0476074
-0.0518799	0.00488281	-0.0469971
-0.0552368	0.00946045	-0.0457764
-0.0561523	0.0115967	-0.0445557
-0.0546265	0.0112915	-0.043335
-0.0512695	0.00946045	-0.0418091
-0.0454712	0.00610352	-0.0393677
-0.0387573	0.00244141	-0.0363159
-0.032959	-0.00152588	-0.0344849
-0.0280762	-0.00549316	-0.0335693
-0.0238037	-0.00946045	-0.0332642
-0.0216675	-0.0125122	-0.0341797
-0.0210571	-0.0143433	-0.0354004
-0.0216675	-0.0152588	-0.0369263
-0.0241089	-0.0149536	-0.0390625
-0.0259399	-0.0143433	-0.0402832
-0.0268555	-0.0131226	-0.039978
-0.0296021	-0.0088501	-0.0384521
-0.03479	-0.00366211	-0.0384521
-0.0402832	0	-0.0402832
-0.0436401	0.00213623	-0.0415039
-0.0448608	0.00244141	-0.0424194
-0.0448608	0.00305176	-0.0418091
-0.0439453	0.00549316	-0.0384521
-0.043335	0.00854492	-0.03479
-0.0430298	0.00976563	-0.0332642
-0.0430298	0.0100708	-0.032959
-0.0436401	0.0115967	-0.0320435
-0.0424194	0.012207	-0.0302124
-0.038147	0.0112915	-0.0268555
-0.0335693	0.0100708	-0.0234985
-0.0283813	0.00854492	-0.0198364
-0.0228882	0.00610352	-0.0167847
-0.0195313	0.00366211	-0.0158691
-0.0189209	0.00183105	-0.0170898
-0.0192261	-0.000305176	-0.0195313
-0.0204468	-0.00152588	-0.0219727
-0.0216675	-0.00274658	-0.0244141
-0.0228882	-0.00366211	-0.0265503
-0.0247192	-0.00366211	-0.0283813
-0.0283813	-0.00274658	-0.0311279
-0.032959	-0.0012207	-0.0341797
-0.0387573	0.00183105	-0.0369263
-0.0436401	0.00518799	-0.0384521
-0.0460815	0.00640869	-0.0396729
-0.0463867	0.00640869	-0.039978
-0.0466919	0.00640869	-0.0402832
-0.0466919	0.00671387	-0.039978
-0.0473022	0.00823975	-0.0390625
-0.0494385	0.0115967	-0.0378418
-0.0485229	0.0115967	-0.0369263
-0.0439453	0.00732422	-0.0366211
-0.039978	0.00366211	-0.0363159
-0.0372314	0.00183105	-0.0354004
-0.0350952	0	-0.0350952
-0.0320435	-0.00274658	-0.03479
-0.027771	-0.00762939	-0.0354004
-0.0247192	-0.012207	-0.0369263
-0.0241089	-0.0140381	-0.038147
-0.0259399	-0.0128174	-0.0387573
-0.0259399	-0.0128174	-0.0387573
-0.0234985	-0.0152588	-0.0387573
-0.0210571	-0.0177002	-0.0387573
-0.0201416	-0.0183105	-0.0384521
-0.0213623	-0.0164795	-0.0378418
-0.0238037	-0.0137329	-0.0375366
-0.0250244	-0.0125122	-0.0375366
-0.0241089	-0.0140381	-0.038147
-0.0204468	-0.0180054	-0.0384521
-0.0167847	-0.0216675	-0.0384521
-0.0183105	-0.020752	-0.0390625
-0.0238037	-0.0161743	-0.039978
-0.0283813	-0.0125122	-0.0408936
-0.0299072	-0.0109863	-0.0408936
-0.0311279	-0.00854492	-0.0396729
-0.0341797	-0.00549316	-0.0396729
-0.0375366	-0.00213623	-0.0396729
-0.0390625	0	-0.0390625
-0.0378418	0.000305176	-0.0375366
-0.03479	-0.0012207	-0.0360107
-0.0308228	-0.00396729	-0.03479
-0.0268555	-0.00732422	-0.0341797
-0.0231934	-0.0106812	-0.0338745
-0.020752	-0.0137329	-0.0344849
-0.0195313	-0.0158691	-0.0354004
-0.0198364	-0.0167847	-0.0366211
-0.0216675	-0.0158691	-0.0375366
-0.0250244	-0.0134277	-0.0384521
-0.0280762	-0.0106812	-0.0387573
-0.0314331	-0.00793457	-0.0393677
-0.0350952	-0.00579834	-0.0408936
-0.0387573	-0.00427246	-0.0430298
-0.0430298	-0.00244141	-0.0454712
-0.0476074	-0.000915527	-0.0485229
-0.0463867	-0.00213623	-0.0485229
-0.0411987	-0.00488281	-0.0460815
-0.0378418	-0.00518799	-0.0430298
-0.038147	-0.00244141	-0.0405884
-0.0372314	-0.00152588	-0.0387573
-0.0317383	-0.00183105	-0.0335693
-0.0262451	-0.000305176	-0.0265503
-0.0238037	0.00396729	-0.0198364
-0.0228882	0.00915527	-0.0137329
-0.0204468	0.0125122	-0.00793457
-0.0177002	0.0146484	-0.00305176
-0.0149536	0.0158691	0.000915527
-0.010376	0.0146484	0.00427246
-0.00427246	0.0106812	0.00640869
0.00152588	0.00579834	0.00732422
0.00671387	0.000915527	0.00762939
0.0125122	-0.00396729	0.00854492
0.0186157	-0.00915527	0.00946045
0.0253296	-0.0134277	0.0119019
0.0308228	-0.0158691	0.0149536
0.0341797	-0.015564	0.0186157
0.0375366	-0.0137329	0.0238037
0.0390625	-0.00976563	0.0292969
0.0360107	-0.00274658	0.0332642
0.0308228	0.00549316	0.0363159
0.0265503	0.0109863	0.0375366
0.0195313	0.0170898	0.0366211
0.0119019	0.0231934	0.0350952
0.0088501	0.0262451	0.0350952
0.0088501	0.0262451	0.0350952
0.00915527	0.0250244	0.0341797
0.0106812	0.0231934	0.0338745
0.0152588	0.0201416	0.0354004
0.0231934	0.015564	0.0387573
0.032959	0.0100708	0.0430298
0.0430298	0.00457764	0.0476074
0.0518799	0.000915527	0.0527954
0.0604248	-0.00335693	0.0570679
0.067749	-0.00762939	0.0601196
0.071106	-0.00946045	0.0616455
0.0695801	-0.00854492	0.0610352
0.0662231	-0.00732422	0.0588989
0.0628662	-0.00701904	0.0558472
0.0595093	-0.00732422	0.0521851
0.0549316	-0.00762939	0.0473022
0.0473022	-0.00549316	0.0418091
0.0363159	0	0.0363159
0.0253296	0.00579834	0.0311279
0.0177002	0.00823975	0.0259399
0.012207	0.00701904	0.0192261
0.00854492	0.00366211	0.012207
0.00610352	-0.000610352	0.00549316
0.00305176	-0.00396729	-0.000915527
-0.00213623	-0.00457764	-0.00671387
