L I	L III	L II(Calc.)
-0.00915527	-0.0466919	-0.0558472
-0.00213623	-0.0524902	-0.0546265
0.0012207	-0.0549316	-0.0537109
-0.000305176	-0.0537109	-0.0540161
-0.00762939	-0.0491333	-0.0567627
-0.0189209	-0.0430298	-0.0619507
-0.0283813	-0.0366211	-0.0650024
-0.0332642	-0.0314331	-0.0646973
-0.0338745	-0.027771	-0.0616455
-0.0335693	-0.0265503	-0.0601196
-0.0332642	-0.0268555	-0.0601196
-0.0314331	-0.0280762	-0.0595093
-0.0262451	-0.0305176	-0.0567627
-0.0198364	-0.0332642	-0.0531006
-0.0131226	-0.0357056	-0.0488281
-0.00488281	-0.0375366	-0.0424194
0.00335693	-0.038147	-0.03479
0.00915527	-0.0384521	-0.0292969
0.0146484	-0.0393677	-0.0247192
0.0198364	-0.0396729	-0.0198364
0.022583	-0.0378418	-0.0152588
0.0256348	-0.0354004	-0.00976563
0.0326538	-0.0335693	-0.000915527
0.0411987	-0.0323486	0.0088501
0.045166	-0.0289917	0.0161743
0.0448608	-0.0231934	0.0216675
0.0469971	-0.0216675	0.0253296
0.0531006	-0.0247192	0.0283813
0.0601196	-0.0289917	0.0311279
0.0671387	-0.0326538	0.0344849
0.0701904	-0.0338745	0.0363159
0.0686646	-0.0308228	0.0378418
0.0689697	-0.0299072	0.0390625
0.072937	-0.032959	0.039978
0.0799561	-0.038147	0.0418091
0.0860596	-0.0418091	0.0442505
0.0891113	-0.0427246	0.0463867
0.0927734	-0.0445557	0.0482178
0.0985718	-0.0463867	0.0521851
0.104675	-0.0469971	0.0576782
0.114441	-0.0476074	0.0668335
0.124817	-0.0491333	0.0756836
0.131226	-0.0506592	0.0805664
0.135498	-0.0512695	0.0842285
0.140076	-0.0512695	0.0888062
0.144043	-0.0497437	0.0942993
0.143738	-0.0445557	0.0991821
0.141296	-0.0387573	0.102539
0.139465	-0.0341797	0.105286
0.137024	-0.0299072	0.107117
0.132751	-0.0259399	0.106812
0.125427	-0.022583	0.102844
0.117188	-0.0195313	0.0976563
0.111389	-0.017395	0.0939941
0.108032	-0.0152588	0.0927734
0.105286	-0.0131226	0.0921631
0.100708	-0.0106812	0.0900269
0.0949097	-0.00854492	0.0863647
0.090332	-0.00823975	0.0820923
0.0866699	-0.00823975	0.0784302
0.083313	-0.00793457	0.0753784
0.0796509	-0.00762939	0.0720215
0.0744629	-0.00823975	0.0662231
0.0692749	-0.0106812	0.0585938
0.0646973	-0.0146484	0.0500488
0.0610352	-0.0186157	0.0424194
0.0567627	-0.020752	0.0360107
0.0488281	-0.020752	0.0280762
0.0366211	-0.0180054	0.0186157
0.0247192	-0.0152588	0.00946045
0.0134277	-0.0128174	0.000610352
-0.00183105	-0.00549316	-0.00732422
-0.0186157	0.00427246	-0.0143433
-0.0296021	0.00946045	-0.0201416
-0.0372314	0.0115967	-0.0256348
-0.0463867	0.015564	-0.0308228
-0.0579834	0.0189209	-0.0390625
-0.0720215	0.0213623	-0.0506592
-0.0808716	0.0210571	-0.0598145
-0.0787354	0.015564	-0.0631714
-0.0692749	0.00579834	-0.0634766
-0.0564575	-0.00488281	-0.0613403
-0.0430298	-0.0149536	-0.0579834
-0.0326538	-0.0238037	-0.0564575
-0.0259399	-0.0299072	-0.0558472
-0.0216675	-0.0323486	-0.0540161
-0.017395	-0.0332642	-0.0506592
-0.0119019	-0.0366211	-0.0485229
-0.00793457	-0.0405884	-0.0485229
-0.00915527	-0.0418091	-0.0509644
-0.0161743	-0.0390625	-0.0552368
-0.027771	-0.0338745	-0.0616455
-0.0393677	-0.0286865	-0.0680542
-0.0482178	-0.0247192	-0.072937
-0.0552368	-0.0228882	-0.078125
-0.0616455	-0.0222778	-0.0839233
-0.0656128	-0.0219727	-0.0875854
-0.0671387	-0.0213623	-0.088501
-0.0674438	-0.0204468	-0.0878906
-0.0683594	-0.0189209	-0.0872803
-0.0720215	-0.0183105	-0.090332
-0.0747681	-0.0189209	-0.093689
-0.0735474	-0.0180054	-0.0915527
-0.0708008	-0.0149536	-0.0857544
-0.0695801	-0.0106812	-0.0802612
-0.0695801	-0.00671387	-0.0762939
-0.0701904	-0.00305176	-0.0732422
-0.0686646	-0.0012207	-0.0698853
-0.0646973	-0.0012207	-0.065918
-0.0646973	0.00274658	-0.0619507
-0.0701904	0.0109863	-0.0592041
-0.0744629	0.0161743	-0.0582886
-0.0720215	0.0131226	-0.0588989
-0.0631714	0.000915527	-0.0622559
-0.055542	-0.0115967	-0.0671387
-0.0540161	-0.017395	-0.0714111
-0.0537109	-0.020752	-0.0744629
-0.0540161	-0.0228882	-0.0769043
-0.0527954	-0.0256348	-0.0784302
-0.0482178	-0.0314331	-0.0796509
-0.0430298	-0.0366211	-0.0796509
-0.0396729	-0.0387573	-0.0784302
-0.0402832	-0.0372314	-0.0775146
-0.043335	-0.0323486	-0.0756836
-0.0445557	-0.0296021	-0.0741577
-0.0476074	-0.027771	-0.0753784
-0.0546265	-0.0222778	-0.0769043
-0.057373	-0.017395	-0.0747681
-0.0543213	-0.0170898	-0.0714111
-0.0509644	-0.0189209	-0.0698853
-0.0497437	-0.0198364	-0.0695801
-0.0494385	-0.0186157	-0.0680542
-0.0491333	-0.0167847	-0.065918
-0.0494385	-0.0152588	-0.0646973
-0.0497437	-0.0146484	-0.0643921
-0.0473022	-0.015564	-0.0628662
-0.0411987	-0.017395	-0.0585938
-0.0350952	-0.0192261	-0.0543213
-0.0317383	-0.0210571	-0.0527954
-0.0317383	-0.0219727	-0.0537109
-0.0344849	-0.0222778	-0.0567627
-0.0372314	-0.0216675	-0.0588989
-0.038147	-0.0204468	-0.0585938
-0.0378418	-0.0189209	-0.0567627
-0.038147	-0.0186157	-0.0567627
-0.0418091	-0.0177002	-0.0595093
-0.0463867	-0.0164795	-0.0628662
-0.0469971	-0.0186157	-0.0656128
-0.0454712	-0.0213623	-0.0668335
-0.0488281	-0.0192261	-0.0680542
-0.0582886	-0.0109863	-0.0692749
-0.0698853	-0.00152588	-0.0714111
-0.0753784	0.000915527	-0.0744629
-0.0701904	-0.00457764	-0.0747681
-0.0628662	-0.010376	-0.0732422
-0.0628662	-0.0100708	-0.072937
-0.0683594	-0.00732422	-0.0756836
-0.0720215	-0.00701904	-0.0790405
-0.0689697	-0.00976563	-0.0787354
-0.0570679	-0.0186157	-0.0756836
-0.0408936	-0.0308228	-0.0717163
-0.0265503	-0.0421143	-0.0686646
-0.0164795	-0.0497437	-0.0662231
-0.0088501	-0.0546265	-0.0634766
-0.00305176	-0.0582886	-0.0613403
0.000305176	-0.0604248	-0.0601196
0.0012207	-0.0619507	-0.06073
-0.000610352	-0.0613403	-0.0619507
-0.00549316	-0.0598145	-0.0653076
-0.0119019	-0.0576782	-0.0695801
-0.0192261	-0.0543213	-0.0735474
-0.0280762	-0.0494385	-0.0775146
-0.0393677	-0.0436401	-0.0830078
-0.0476074	-0.0387573	-0.0863647
-0.0485229	-0.0350952	-0.0836182
-0.0448608	-0.032959	-0.0778198
-0.0411987	-0.0311279	-0.0723267
-0.0387573	-0.0299072	-0.0686646
-0.0350952	-0.0308228	-0.065918
-0.0299072	-0.032959	-0.0628662
-0.0247192	-0.0354004	-0.0601196
-0.0192261	-0.0378418	-0.0570679
-0.0143433	-0.0396729	-0.0540161
-0.0137329	-0.039978	-0.0537109
-0.0183105	-0.0390625	-0.057373
-0.0256348	-0.0369263	-0.062561
-0.0323486	-0.0350952	-0.0674438
-0.0357056	-0.0326538	-0.0683594
-0.0393677	-0.0286865	-0.0680542
-0.0457764	-0.0210571	-0.0668335
-0.0540161	-0.0112915	-0.0653076
-0.057373	-0.00671387	-0.0640869
-0.0567627	-0.00640869	-0.0631714
-0.0543213	-0.00732422	-0.0616455
-0.0494385	-0.0106812	-0.0601196
-0.0411987	-0.0167847	-0.0579834
-0.0326538	-0.0247192	-0.057373
-0.0247192	-0.0332642	-0.0579834
-0.0180054	-0.0418091	-0.0598145
-0.0146484	-0.0491333	-0.0637817
-0.0143433	-0.0549316	-0.0692749
-0.0152588	-0.0601196	-0.0753784
-0.0180054	-0.0613403	-0.0793457
-0.0253296	-0.0561523	-0.0814819
-0.032959	-0.0494385	-0.0823975
-0.0363159	-0.0448608	-0.0811768
-0.0372314	-0.0415039	-0.0787354
-0.0402832	-0.0354004	-0.0756836
-0.0476074	-0.0241089	-0.0717163
-0.0558472	-0.00976563	-0.0656128
-0.06073	0.00183105	-0.0588989
-0.057373	0.00427246	-0.0531006
-0.0509644	0.00152588	-0.0494385
-0.0466919	-0.000610352	-0.0473022
-0.0457764	-0.00183105	-0.0476074
-0.045166	-0.00457764	-0.0497437
-0.0418091	-0.0106812	-0.0524902
-0.03479	-0.0204468	-0.0552368
-0.027771	-0.0296021	-0.057373
-0.0231934	-0.0375366	-0.06073
-0.0213623	-0.0439453	-0.0653076
-0.0189209	-0.0485229	-0.0674438
-0.017395	-0.0497437	-0.0671387
-0.0201416	-0.0469971	-0.0671387
-0.0247192	-0.0415039	-0.0662231
-0.0292969	-0.0341797	-0.0634766
-0.0335693	-0.027771	-0.0613403
-0.0372314	-0.0231934	-0.0604248
-0.0384521	-0.0201416	-0.0585938
-0.0366211	-0.0183105	-0.0549316
-0.0344849	-0.0177002	-0.0521851
-0.0326538	-0.0177002	-0.050354
-0.0323486	-0.0183105	-0.0506592
-0.0344849	-0.0198364	-0.0543213
-0.0378418	-0.0201416	-0.0579834
-0.0408936	-0.0186157	-0.0595093
-0.0418091	-0.0167847	-0.0585938
-0.0415039	-0.015564	-0.0570679
-0.0418091	-0.0140381	-0.0558472
-0.0427246	-0.0109863	-0.0537109
-0.0387573	-0.00915527	-0.0479126
-0.032959	-0.00732422	-0.0402832
-0.0296021	-0.00518799	-0.03479
-0.0271606	-0.00335693	-0.0305176
-0.022583	-0.00457764	-0.0271606
-0.0128174	-0.0109863	-0.0238037
-0.00152588	-0.0204468	-0.0219727
0.00335693	-0.0253296	-0.0219727
0.00152588	-0.0247192	-0.0231934
-0.00274658	-0.0231934	-0.0259399
-0.00762939	-0.0219727	-0.0296021
-0.0115967	-0.0213623	-0.032959
-0.0146484	-0.0198364	-0.0344849
-0.0167847	-0.0152588	-0.0320435
-0.0192261	-0.00823975	-0.0274658
-0.0231934	0.000305176	-0.0228882
-0.027771	0.00793457	-0.0198364
-0.0292969	0.0115967	-0.0177002
-0.0262451	0.0100708	-0.0161743
-0.0186157	0.00518799	-0.0134277
-0.010376	-0.000305176	-0.0106812
-0.00305176	-0.00610352	-0.00915527
0.00366211	-0.012207	-0.00854492
0.0100708	-0.0177002	-0.00762939
0.0161743	-0.022583	-0.00640869
0.0198364	-0.0268555	-0.00701904
0.0213623	-0.0302124	-0.0088501
0.0234985	-0.032959	-0.00946045
0.0265503	-0.0357056	-0.00915527
0.0268555	-0.0372314	-0.010376
0.022583	-0.0363159	-0.0137329
0.0140381	-0.0332642	-0.0192261
0.00274658	-0.0314331	-0.0286865
-0.00518799	-0.0311279	-0.0363159
-0.00671387	-0.0311279	-0.0378418
-0.00854492	-0.0299072	-0.0384521
-0.0125122	-0.0271606	-0.0396729
-0.0167847	-0.0244141	-0.0411987
-0.0195313	-0.0234985	-0.0430298
-0.0213623	-0.0238037	-0.045166
-0.0259399	-0.0213623	-0.0473022
-0.0302124	-0.0170898	-0.0473022
-0.0311279	-0.0152588	-0.0463867
-0.0317383	-0.017395	-0.0491333
-0.0354004	-0.0210571	-0.0564575
-0.0421143	-0.0222778	-0.0643921
-0.050354	-0.0201416	-0.0704956
-0.0582886	-0.0183105	-0.0765991
-0.0595093	-0.0231934	-0.0827026
-0.0531006	-0.0323486	-0.0854492
-0.0418091	-0.0418091	-0.0836182
-0.0311279	-0.0497437	-0.0808716
-0.0213623	-0.0564575	-0.0778198
-0.0106812	-0.0653076	-0.0759888
-0.000305176	-0.0732422	-0.0735474
0.00640869	-0.0775146	-0.071106
0.00915527	-0.0784302	-0.0692749
0.00732422	-0.0756836	-0.0683594
0.00152588	-0.0704956	-0.0689697
-0.0088501	-0.062561	-0.0714111
-0.0228882	-0.0543213	-0.0772095
-0.0357056	-0.0463867	-0.0820923
-0.0448608	-0.0393677	-0.0842285
-0.050354	-0.0332642	-0.0836182
-0.0534058	-0.0292969	-0.0827026
-0.0546265	-0.0280762	-0.0827026
-0.0524902	-0.0292969	-0.0817871
-0.0463867	-0.0320435	-0.0784302
-0.0384521	-0.0357056	-0.0741577
-0.0311279	-0.0387573	-0.0698853
-0.0259399	-0.0411987	-0.0671387
-0.0253296	-0.0424194	-0.067749
-0.0289917	-0.0430298	-0.0720215
-0.03479	-0.0408936	-0.0756836
-0.0445557	-0.0335693	-0.078125
-0.0549316	-0.0247192	-0.0796509
-0.0634766	-0.0189209	-0.0823975
-0.0695801	-0.0164795	-0.0860596
-0.0741577	-0.0143433	-0.088501
-0.0744629	-0.0112915	-0.0857544
-0.0653076	-0.0112915	-0.0765991
-0.0473022	-0.0143433	-0.0616455
-0.0244141	-0.0177002	-0.0421143
0.000915527	-0.015564	-0.0146484
0.0302124	-0.00549316	0.0247192
0.0723267	0.00457764	0.0769043
0.128479	0.0115967	0.140076
0.189514	0.0195313	0.209045
0.244751	0.0335693	0.27832
0.289917	0.0552368	0.345154
0.325317	0.0845337	0.409851
0.345764	0.117188	0.462952
0.340881	0.153809	0.49469
0.308228	0.190735	0.498962
0.257263	0.220032	0.477295
0.192261	0.239258	0.431519
0.11322	0.252075	0.365295
0.0241089	0.26001	0.284119
-0.0656128	0.26001	0.194397
-0.14679	0.247498	0.100708
-0.210266	0.220337	0.0100708
-0.252686	0.181885	-0.0708008
-0.273132	0.136414	-0.136719
-0.270996	0.0878906	-0.183105
-0.25177	0.0396729	-0.212097
-0.221863	-0.00457764	-0.22644
-0.189209	-0.0402832	-0.229492
-0.157166	-0.0656128	-0.222778
-0.128479	-0.0817871	-0.210266
-0.105591	-0.0891113	-0.194702
-0.0897217	-0.0888062	-0.178528
-0.0802612	-0.0830078	-0.163269
-0.0744629	-0.0732422	-0.147705
-0.0701904	-0.0619507	-0.132141
-0.0674438	-0.0509644	-0.118408
-0.067749	-0.0411987	-0.108948
-0.0680542	-0.0335693	-0.101624
-0.0671387	-0.0283813	-0.09552
-0.0643921	-0.0244141	-0.0888062
-0.0604248	-0.0216675	-0.0820923
-0.0561523	-0.0210571	-0.0772095
-0.0527954	-0.0222778	-0.0750732
-0.050354	-0.0234985	-0.0738525
-0.0497437	-0.0228882	-0.0726318
-0.050354	-0.0213623	-0.0717163
-0.0518799	-0.0198364	-0.0717163
-0.0576782	-0.015564	-0.0732422
-0.0634766	-0.0131226	-0.0765991
-0.0640869	-0.0158691	-0.0799561
-0.062561	-0.0201416	-0.0827026
-0.0616455	-0.0222778	-0.0839233
-0.06073	-0.0234985	-0.0842285
-0.0601196	-0.0244141	-0.0845337
-0.0582886	-0.0271606	-0.0854492
-0.0500488	-0.0323486	-0.0823975
-0.0326538	-0.0424194	-0.0750732
-0.015564	-0.0506592	-0.0662231
-0.0119019	-0.0457764	-0.0576782
-0.0170898	-0.0354004	-0.0524902
-0.0195313	-0.0292969	-0.0488281
-0.0170898	-0.0274658	-0.0445557
-0.0128174	-0.0280762	-0.0408936
-0.010376	-0.0286865	-0.0390625
-0.0140381	-0.0265503	-0.0405884
-0.0213623	-0.0228882	-0.0442505
-0.0268555	-0.0222778	-0.0491333
-0.0268555	-0.0262451	-0.0531006
-0.0228882	-0.0332642	-0.0561523
-0.0183105	-0.0405884	-0.0588989
-0.0143433	-0.0463867	-0.06073
-0.0115967	-0.0497437	-0.0613403
-0.0115967	-0.0491333	-0.06073
-0.0134277	-0.0457764	-0.0592041
-0.015564	-0.0421143	-0.0576782
-0.0170898	-0.038147	-0.0552368
-0.0183105	-0.0344849	-0.0527954
-0.020752	-0.0299072	-0.0506592
-0.0228882	-0.0256348	-0.0485229
-0.0244141	-0.0228882	-0.0473022
-0.0256348	-0.0219727	-0.0476074
-0.0253296	-0.0219727	-0.0473022
-0.0216675	-0.0241089	-0.0457764
-0.0189209	-0.0274658	-0.0463867
-0.0177002	-0.0311279	-0.0488281
-0.0170898	-0.0341797	-0.0512695
-0.0180054	-0.0360107	-0.0540161
-0.0201416	-0.038147	-0.0582886
-0.0213623	-0.0411987	-0.062561
-0.0186157	-0.045166	-0.0637817
-0.0146484	-0.0488281	-0.0634766
-0.010376	-0.0512695	-0.0616455
-0.00488281	-0.0518799	-0.0567627
0.000915527	-0.0512695	-0.050354
0.00549316	-0.0494385	-0.0439453
0.0100708	-0.0473022	-0.0372314
0.0189209	-0.0485229	-0.0296021
0.0296021	-0.0506592	-0.0210571
0.0366211	-0.0509644	-0.0143433
0.0393677	-0.0494385	-0.0100708
0.0363159	-0.0442505	-0.00793457
0.0311279	-0.0378418	-0.00671387
0.0314331	-0.038147	-0.00671387
0.0344849	-0.043335	-0.0088501
0.0405884	-0.0497437	-0.00915527
0.0476074	-0.0561523	-0.00854492
0.0558472	-0.0631714	-0.00732422
0.0656128	-0.0708008	-0.00518799
0.0762939	-0.0775146	-0.0012207
0.0891113	-0.083313	0.00579834
0.101624	-0.0881958	0.0134277
0.111389	-0.0915527	0.0198364
0.118103	-0.093689	0.0244141
0.122375	-0.0927734	0.0296021
0.122375	-0.0875854	0.03479
0.119629	-0.0802612	0.0393677
0.117798	-0.0744629	0.043335
0.115662	-0.0692749	0.0463867
0.111694	-0.0643921	0.0473022
0.108032	-0.0604248	0.0476074
0.105896	-0.057373	0.0485229
0.110474	-0.0570679	0.0534058
0.117798	-0.0585938	0.0592041
0.121155	-0.0592041	0.0619507
0.12085	-0.0585938	0.0622559
0.12146	-0.057373	0.0640869
0.126038	-0.0561523	0.0698853
0.131836	-0.0546265	0.0772095
0.134888	-0.0515747	0.083313
0.131531	-0.0466919	0.0848389
0.125732	-0.0411987	0.0845337
0.124207	-0.0372314	0.0869751
0.126953	-0.0341797	0.0927734
0.132446	-0.0341797	0.0982666
0.136108	-0.0344849	0.101624
0.133972	-0.0305176	0.103455
0.126953	-0.0231934	0.10376
0.121155	-0.0180054	0.103149
0.119019	-0.0183105	0.100708
0.113831	-0.0164795	0.0973511
0.10437	-0.0109863	0.0933838
0.090332	-0.00274658	0.0875854
0.0723267	0.00610352	0.0784302
0.0521851	0.0137329	0.065918
0.0350952	0.0180054	0.0531006
0.0256348	0.0170898	0.0427246
0.0219727	0.0128174	0.03479
0.0192261	0.00701904	0.0262451
0.0149536	0.000915527	0.0158691
0.00946045	-0.00457764	0.00488281
0.00610352	-0.0128174	-0.00671387
0.00823975	-0.0234985	-0.0152588
0.0140381	-0.0341797	-0.0201416
0.0158691	-0.0402832	-0.0244141
0.00976563	-0.0387573	-0.0289917
-0.000305176	-0.0335693	-0.0338745
-0.0100708	-0.0283813	-0.0384521
-0.0189209	-0.0228882	-0.0418091
-0.027771	-0.0167847	-0.0445557
-0.0357056	-0.0106812	-0.0463867
-0.0411987	-0.00549316	-0.0466919
-0.0457764	-0.00152588	-0.0473022
-0.0509644	0.000305176	-0.0506592
-0.0534058	0.000305176	-0.0531006
-0.0531006	-0.0012207	-0.0543213
-0.0531006	-0.00396729	-0.0570679
-0.0552368	-0.00549316	-0.06073
-0.0585938	-0.00579834	-0.0643921
-0.0592041	-0.00610352	-0.0653076
-0.0592041	-0.00488281	-0.0640869
-0.06073	-0.00274658	-0.0634766
-0.0643921	-0.000305176	-0.0646973
-0.0695801	0.00152588	-0.0680542
-0.0759888	0.00274658	-0.0732422
-0.0811768	0.00335693	-0.0778198
-0.0817871	0.00396729	-0.0778198
-0.0814819	0.00518799	-0.0762939
-0.0823975	0.00549316	-0.0769043
-0.0811768	0.00366211	-0.0775146
-0.078125	0.00183105	-0.0762939
-0.0738525	0.000305176	-0.0735474
-0.0695801	-0.00183105	-0.0714111
-0.0665283	-0.00457764	-0.071106
-0.0653076	-0.00457764	-0.0698853
-0.0631714	-0.00427246	-0.0674438
-0.0604248	-0.00457764	-0.0650024
-0.0598145	-0.00518799	-0.0650024
-0.0616455	-0.00518799	-0.0668335
-0.0643921	-0.00457764	-0.0689697
-0.0686646	-0.00335693	-0.0720215
-0.0704956	-0.00305176	-0.0735474
-0.0634766	-0.00488281	-0.0683594
-0.055542	-0.00579834	-0.0613403
-0.0540161	-0.00366211	-0.0576782
-0.0567627	-0.000305176	-0.0570679
-0.0598145	0.00335693	-0.0564575
-0.0601196	0.00396729	-0.0561523
-0.0588989	0.00274658	-0.0561523
-0.0604248	0.00183105	-0.0585938
-0.0637817	0.00213623	-0.0616455
-0.0668335	0.00274658	-0.0640869
-0.0695801	0.00335693	-0.0662231
-0.072937	0.00396729	-0.0689697
-0.0756836	0.00396729	-0.0717163
-0.0787354	0.00549316	-0.0732422
-0.0799561	0.0100708	-0.0698853
-0.0747681	0.0119019	-0.0628662
-0.0650024	0.0106812	-0.0543213
-0.0570679	0.00946045	-0.0476074
-0.0521851	0.00946045	-0.0427246
-0.0494385	0.00946045	-0.039978
-0.0463867	0.00854492	-0.0378418
-0.0439453	0.00671387	-0.0372314
-0.043335	0.00427246	-0.0390625
-0.0436401	0.0012207	-0.0424194
-0.0448608	-0.00213623	-0.0469971
-0.0463867	-0.00518799	-0.0515747
-0.0473022	-0.00823975	-0.055542
-0.0515747	-0.00732422	-0.0588989
-0.0628662	0.00183105	-0.0610352
-0.0738525	0.0115967	-0.0622559
-0.0747681	0.0134277	-0.0613403
-0.0689697	0.00793457	-0.0610352
-0.06073	-0.0012207	-0.0619507
-0.0527954	-0.00823975	-0.0610352
-0.0463867	-0.0128174	-0.0592041
-0.0390625	-0.0192261	-0.0582886
-0.0283813	-0.0286865	-0.0570679
-0.0180054	-0.0372314	-0.0552368
-0.0143433	-0.0387573	-0.0531006
-0.0161743	-0.0350952	-0.0512695
-0.0186157	-0.0317383	-0.050354
-0.0216675	-0.0265503	-0.0482178
-0.0256348	-0.0198364	-0.0454712
-0.0286865	-0.0146484	-0.043335
-0.0338745	-0.0106812	-0.0445557
-0.0427246	-0.00488281	-0.0476074
-0.0497437	0.000915527	-0.0488281
-0.0512695	0.00183105	-0.0494385
-0.0482178	-0.00213623	-0.050354
-0.0430298	-0.00823975	-0.0512695
-0.0393677	-0.0140381	-0.0534058
-0.0369263	-0.0177002	-0.0546265
-0.0354004	-0.0192261	-0.0546265
-0.0366211	-0.0198364	-0.0564575
-0.0384521	-0.0201416	-0.0585938
-0.0387573	-0.0201416	-0.0588989
-0.0375366	-0.0210571	-0.0585938
-0.0393677	-0.0222778	-0.0616455
-0.0424194	-0.0238037	-0.0662231
-0.043335	-0.0247192	-0.0680542
-0.0424194	-0.0238037	-0.0662231
-0.0427246	-0.020752	-0.0634766
-0.0436401	-0.0177002	-0.0613403
-0.0457764	-0.0140381	-0.0598145
-0.0494385	-0.00946045	-0.0588989
-0.0521851	-0.00518799	-0.057373
-0.0549316	-0.0012207	-0.0561523
-0.0619507	0.00610352	-0.0558472
-0.0708008	0.0134277	-0.057373
-0.0750732	0.0143433	-0.06073
-0.0750732	0.00976563	-0.0653076
-0.0769043	0.00640869	-0.0704956
-0.0778198	0.00244141	-0.0753784
-0.0793457	0.000915527	-0.0784302
-0.0839233	0.00366211	-0.0802612
-0.0842285	0.00335693	-0.0808716
-0.0762939	-0.00244141	-0.0787354
-0.0650024	-0.010376	-0.0753784
-0.0558472	-0.0158691	-0.0717163
-0.0512695	-0.0183105	-0.0695801
-0.0476074	-0.0189209	-0.0665283
-0.0424194	-0.0195313	-0.0619507
-0.0354004	-0.020752	-0.0561523
-0.0289917	-0.0231934	-0.0521851
-0.0247192	-0.0253296	-0.0500488
-0.0231934	-0.0259399	-0.0491333
-0.0234985	-0.0244141	-0.0479126
-0.0259399	-0.0213623	-0.0473022
-0.0292969	-0.0180054	-0.0473022
-0.0335693	-0.0146484	-0.0482178
-0.0405884	-0.00915527	-0.0497437
-0.0500488	-0.00244141	-0.0524902
-0.0595093	0.00427246	-0.0552368
-0.065918	0.00701904	-0.0588989
-0.0689697	0.00640869	-0.062561
-0.071106	0.00518799	-0.065918
-0.0723267	0.00549316	-0.0668335
-0.0717163	0.00579834	-0.065918
-0.0680542	0.00396729	-0.0640869
-0.0637817	0.0012207	-0.062561
-0.0610352	-0.00183105	-0.0628662
-0.0567627	-0.00671387	-0.0634766
-0.0479126	-0.0134277	-0.0613403
-0.0390625	-0.0180054	-0.0570679
-0.0387573	-0.0161743	-0.0549316
-0.0421143	-0.0128174	-0.0549316
-0.0430298	-0.0112915	-0.0543213
-0.0424194	-0.010376	-0.0527954
-0.0411987	-0.0106812	-0.0518799
-0.0390625	-0.012207	-0.0512695
-0.0387573	-0.0109863	-0.0497437
-0.0424194	-0.00579834	-0.0482178
-0.0476074	-0.000610352	-0.0482178
-0.0512695	0.00335693	-0.0479126
-0.0521851	0.00579834	-0.0463867
-0.0543213	0.00793457	-0.0463867
-0.0561523	0.0112915	-0.0448608
-0.0579834	0.0164795	-0.0415039
-0.0604248	0.0228882	-0.0375366
-0.0613403	0.0289917	-0.0323486
-0.06073	0.0332642	-0.0274658
-0.0601196	0.0366211	-0.0234985
-0.0588989	0.0405884	-0.0183105
-0.0546265	0.0424194	-0.012207
-0.0454712	0.0393677	-0.00610352
-0.0350952	0.0323486	-0.00274658
-0.0320435	0.0283813	-0.00366211
-0.0363159	0.0283813	-0.00793457
-0.0402832	0.027771	-0.0125122
-0.0369263	0.0219727	-0.0149536
-0.0286865	0.0140381	-0.0146484
-0.0250244	0.012207	-0.0128174
-0.0247192	0.0125122	-0.012207
-0.0219727	0.0106812	-0.0112915
-0.0180054	0.0088501	-0.00915527
-0.0152588	0.00915527	-0.00610352
-0.0115967	0.00946045	-0.00213623
-0.00854492	0.00915527	0.000610352
-0.0088501	0.010376	0.00152588
-0.00976563	0.0106812	0.000915527
-0.00915527	0.00793457	-0.0012207
-0.0088501	0.00427246	-0.00457764
-0.0100708	0.000610352	-0.00946045
-0.0140381	-0.00183105	-0.0158691
-0.0222778	-0.000915527	-0.0231934
-0.0296021	0.000610352	-0.0289917
-0.0308228	-0.0012207	-0.0320435
-0.0286865	-0.00640869	-0.0350952
-0.0274658	-0.0109863	-0.0384521
-0.0283813	-0.0134277	-0.0418091
-0.0302124	-0.0143433	-0.0445557
-0.032959	-0.0143433	-0.0473022
-0.0354004	-0.0146484	-0.0500488
-0.038147	-0.0167847	-0.0549316
-0.0393677	-0.0222778	-0.0616455
-0.038147	-0.0274658	-0.0656128
-0.0372314	-0.0299072	-0.0671387
-0.0415039	-0.0299072	-0.0714111
-0.0485229	-0.0280762	-0.0765991
-0.0567627	-0.0253296	-0.0820923
-0.0656128	-0.0222778	-0.0878906
-0.0726318	-0.0189209	-0.0915527
-0.0762939	-0.0149536	-0.0912476
-0.0790405	-0.0109863	-0.0900269
-0.0820923	-0.0088501	-0.0909424
-0.0817871	-0.0109863	-0.0927734
-0.0787354	-0.0152588	-0.0939941
-0.0759888	-0.0180054	-0.0939941
-0.0714111	-0.0201416	-0.0915527
-0.0701904	-0.0198364	-0.0900269
-0.0704956	-0.0186157	-0.0891113
-0.067749	-0.0170898	-0.0848389
-0.0622559	-0.0161743	-0.0784302
-0.0561523	-0.0177002	-0.0738525
-0.0512695	-0.0189209	-0.0701904
-0.0479126	-0.0183105	-0.0662231
-0.0454712	-0.0177002	-0.0631714
-0.0430298	-0.0183105	-0.0613403
-0.0408936	-0.020752	-0.0616455
-0.039978	-0.0238037	-0.0637817
-0.0393677	-0.0265503	-0.065918
-0.0405884	-0.0280762	-0.0686646
-0.0463867	-0.0271606	-0.0735474
-0.0561523	-0.0244141	-0.0805664
-0.0650024	-0.0201416	-0.085144
-0.0723267	-0.0146484	-0.0869751
-0.0799561	-0.00793457	-0.0878906
-0.0878906	-0.000305176	-0.0881958
-0.0930786	0.00457764	-0.088501
-0.0921631	0.00427246	-0.0878906
-0.0842285	-0.000915527	-0.085144
-0.0698853	-0.00976563	-0.0796509
-0.0546265	-0.0143433	-0.0689697
-0.0427246	-0.00946045	-0.0521851
-0.0256348	-0.00274658	-0.0283813
0.00396729	0.000305176	0.00427246
0.0427246	0.00549316	0.0482178
0.0857544	0.0180054	0.10376
0.129089	0.0372314	0.166321
0.171509	0.062561	0.23407
0.212402	0.0933838	0.305786
0.245972	0.13031	0.376282
0.267639	0.169678	0.437317
0.275879	0.206604	0.482483
0.265503	0.240173	0.505676
0.231018	0.272522	0.50354
0.175476	0.300598	0.476074
0.104065	0.32074	0.424805
0.0228882	0.332336	0.355225
-0.0585938	0.331116	0.272522
-0.131836	0.314331	0.182495
-0.194702	0.284729	0.0900269
-0.245056	0.245667	0.000610352
-0.281677	0.201721	-0.0799561
-0.302124	0.155945	-0.146179
-0.301514	0.109253	-0.192261
-0.281982	0.0640869	-0.217896
-0.249634	0.0250244	-0.224609
-0.212708	-0.00579834	-0.218506
-0.179138	-0.0259399	-0.205078
-0.149231	-0.0372314	-0.186462
-0.120544	-0.0445557	-0.1651
-0.0939941	-0.0488281	-0.142822
-0.0744629	-0.0469971	-0.12146
-0.0674438	-0.0363159	-0.10376
-0.0686646	-0.022583	-0.0912476
-0.0701904	-0.0131226	-0.083313
-0.0717163	-0.00671387	-0.0784302
-0.0744629	-0.000915527	-0.0753784
-0.0787354	0.00335693	-0.0753784
-0.0848389	0.00854492	-0.0762939
-0.090332	0.0143433	-0.0759888
-0.0924683	0.0177002	-0.0747681
-0.0912476	0.0189209	-0.0723267
-0.0878906	0.0183105	-0.0695801
-0.0854492	0.017395	-0.0680542
-0.0820923	0.0161743	-0.065918
-0.0769043	0.0140381	-0.0628662
-0.0695801	0.00915527	-0.0604248
-0.062561	0.00335693	-0.0592041
-0.0561523	-0.00244141	-0.0585938
-0.0531006	-0.00427246	-0.057373
-0.0531006	-0.00335693	-0.0564575
-0.0552368	-0.000915527	-0.0561523
-0.0582886	0.00305176	-0.0552368
-0.0567627	0.00427246	-0.0524902
-0.0512695	0.00305176	-0.0482178
-0.0476074	0.00244141	-0.045166
-0.0479126	0.00427246	-0.0436401
-0.0500488	0.00732422	-0.0427246
-0.0506592	0.0088501	-0.0418091
-0.0479126	0.00762939	-0.0402832
-0.0424194	0.00427246	-0.038147
-0.0360107	0	-0.0360107
-0.0308228	-0.00366211	-0.0344849
-0.0259399	-0.00701904	-0.032959
-0.0241089	-0.00854492	-0.0326538
-0.0241089	-0.00793457	-0.0320435
-0.0253296	-0.00610352	-0.0314331
-0.0299072	-0.00213623	-0.0320435
-0.0366211	0.00427246	-0.0323486
-0.0463867	0.012207	-0.0341797
-0.0576782	0.0189209	-0.0387573
-0.0646973	0.022583	-0.0421143
-0.0653076	0.0222778	-0.0430298
-0.0616455	0.0183105	-0.043335
-0.0552368	0.0125122	-0.0427246
-0.0479126	0.00732422	-0.0405884
-0.0421143	0.00427246	-0.0378418
-0.0341797	0	-0.0341797
-0.0219727	-0.00610352	-0.0280762
-0.0106812	-0.0131226	-0.0238037
-0.00305176	-0.0186157	-0.0216675
-0.000610352	-0.0201416	-0.020752
-0.00183105	-0.0180054	-0.0198364
-0.00457764	-0.0140381	-0.0186157
-0.00701904	-0.0106812	-0.0177002
-0.00946045	-0.00762939	-0.0170898
-0.0125122	-0.00579834	-0.0183105
-0.0152588	-0.00518799	-0.0204468
-0.0161743	-0.00457764	-0.020752
-0.015564	-0.00366211	-0.0192261
-0.0134277	-0.00183105	-0.0152588
-0.0106812	-0.000610352	-0.0112915
-0.00671387	-0.000610352	-0.00732422
-0.00396729	-0.00213623	-0.00610352
-0.00244141	-0.00335693	-0.00579834
-0.0012207	-0.00366211	-0.00488281
-0.000305176	-0.00396729	-0.00427246
0.0012207	-0.00457764	-0.00335693
0.00305176	-0.00518799	-0.00213623
0.00640869	-0.00732422	-0.000915527
0.0112915	-0.0115967	-0.000305176
0.0167847	-0.0158691	0.000915527
0.0250244	-0.020752	0.00427246
0.0332642	-0.0241089	0.00915527
0.0405884	-0.0259399	0.0146484
0.0466919	-0.0274658	0.0192261
0.0537109	-0.0292969	0.0244141
0.0631714	-0.0326538	0.0305176
0.0717163	-0.0350952	0.0366211
0.0756836	-0.0326538	0.0430298
0.0769043	-0.0296021	0.0473022
0.0765991	-0.0268555	0.0497437
0.0753784	-0.0241089	0.0512695
0.0753784	-0.022583	0.0527954
0.0805664	-0.0231934	0.057373
0.0894165	-0.0256348	0.0637817
0.0976563	-0.0280762	0.0695801
0.10437	-0.0299072	0.0744629
0.112915	-0.0335693	0.0793457
0.124512	-0.0390625	0.0854492
0.136414	-0.0448608	0.0915527
0.145264	-0.0482178	0.0970459
0.154419	-0.0494385	0.10498
0.162354	-0.0488281	0.113525
0.166016	-0.0473022	0.118713
0.1651	-0.0430298	0.12207
0.159302	-0.03479	0.124512
0.150146	-0.0247192	0.125427
0.140076	-0.0161743	0.123901
0.132141	-0.0100708	0.12207
0.127563	-0.00518799	0.122375
0.122986	-0.000610352	0.122375
0.116272	0.00366211	0.119934
0.111694	0.00732422	0.119019
0.108337	0.010376	0.118713
0.104065	0.012207	0.116272
0.100708	0.0128174	0.113525
0.0985718	0.0134277	0.112
0.0979614	0.0143433	0.112305
0.0964355	0.0149536	0.111389
0.0912476	0.0164795	0.107727
0.0814819	0.0195313	0.101013
0.0683594	0.0244141	0.0927734
0.0543213	0.0289917	0.083313
0.0411987	0.0323486	0.0735474
0.0244141	0.0393677	0.0637817
0	0.0540161	0.0540161
-0.0274658	0.0720215	0.0445557
-0.0442505	0.0805664	0.0363159
-0.0473022	0.0759888	0.0286865
-0.0457764	0.0680542	0.0222778
-0.0469971	0.0631714	0.0161743
-0.0482178	0.0601196	0.0119019
-0.0457764	0.0531006	0.00732422
-0.0378418	0.039978	0.00213623
-0.0253296	0.0213623	-0.00396729
-0.0128174	0.00274658	-0.0100708
-0.00701904	-0.00762939	-0.0146484
-0.00915527	-0.00946045	-0.0186157
-0.0146484	-0.00854492	-0.0231934
-0.0265503	-0.00244141	-0.0289917
-0.0427246	0.00793457	-0.03479
-0.0567627	0.0189209	-0.0378418
-0.067749	0.0292969	-0.0384521
-0.0738525	0.0375366	-0.0363159
-0.0772095	0.0424194	-0.03479
-0.0778198	0.0436401	-0.0341797
-0.0772095	0.0430298	-0.0341797
-0.0775146	0.0415039	-0.0360107
-0.0775146	0.038147	-0.0393677
-0.0726318	0.0335693	-0.0390625
-0.0634766	0.0283813	-0.0350952
-0.0570679	0.0244141	-0.0326538
-0.0546265	0.022583	-0.0320435
-0.055542	0.0231934	-0.0323486
-0.0588989	0.0250244	-0.0338745
-0.0622559	0.027771	-0.0344849
-0.0637817	0.0308228	-0.032959
-0.0643921	0.0332642	-0.0311279
-0.0653076	0.0354004	-0.0299072
-0.0674438	0.0366211	-0.0308228
-0.0704956	0.0378418	-0.0326538
-0.0750732	0.0402832	-0.03479
-0.0820923	0.0430298	-0.0390625
-0.0866699	0.0473022	-0.0393677
-0.0888062	0.0524902	-0.0363159
-0.093689	0.0576782	-0.0360107
-0.100403	0.0628662	-0.0375366
-0.102844	0.0668335	-0.0360107
-0.0979614	0.065918	-0.0320435
-0.0878906	0.06073	-0.0271606
-0.083313	0.0595093	-0.0238037
-0.0857544	0.0631714	-0.022583
-0.0878906	0.065918	-0.0219727
-0.0863647	0.0640869	-0.0222778
-0.0817871	0.0588989	-0.0228882
-0.0741577	0.0518799	-0.0222778
-0.0671387	0.0454712	-0.0216675
-0.0650024	0.0427246	-0.0222778
-0.0650024	0.0421143	-0.0228882
-0.0640869	0.0415039	-0.022583
-0.0619507	0.0402832	-0.0216675
-0.0576782	0.0375366	-0.0201416
-0.0521851	0.0335693	-0.0186157
-0.0473022	0.0299072	-0.017395
-0.045166	0.0283813	-0.0167847
-0.0448608	0.0280762	-0.0167847
-0.045166	0.0286865	-0.0164795
-0.0469971	0.0296021	-0.017395
-0.0497437	0.0286865	-0.0210571
-0.0515747	0.0244141	-0.0271606
-0.0531006	0.0234985	-0.0296021
-0.0537109	0.0271606	-0.0265503
-0.0543213	0.0314331	-0.0228882
-0.0543213	0.0335693	-0.020752
-0.0527954	0.0341797	-0.0186157
-0.050354	0.0350952	-0.0152588
-0.0479126	0.0369263	-0.0109863
-0.0448608	0.0390625	-0.00579834
-0.043335	0.0415039	-0.00183105
-0.0448608	0.0445557	-0.000305176
-0.0488281	0.0485229	-0.000305176
-0.0518799	0.0506592	-0.0012207
-0.0537109	0.0488281	-0.00488281
-0.0567627	0.045166	-0.0115967
-0.0598145	0.0393677	-0.0204468
-0.0622559	0.0344849	-0.027771
-0.0622559	0.0314331	-0.0308228
-0.0585938	0.0305176	-0.0280762
-0.0552368	0.0317383	-0.0234985
-0.0518799	0.0326538	-0.0192261
-0.0479126	0.0326538	-0.0152588
-0.0436401	0.0323486	-0.0112915
-0.039978	0.0335693	-0.00640869
-0.0378418	0.0369263	-0.000915527
-0.03479	0.0384521	0.00366211
-0.0320435	0.0387573	0.00671387
-0.0314331	0.0378418	0.00640869
-0.0314331	0.0341797	0.00274658
-0.0317383	0.0286865	-0.00305176
-0.032959	0.0238037	-0.00915527
-0.0338745	0.0183105	-0.015564
-0.0326538	0.00976563	-0.0228882
-0.0332642	0.00396729	-0.0292969
-0.0372314	0.00427246	-0.032959
-0.0415039	0.00701904	-0.0344849
-0.0439453	0.0088501	-0.0350952
-0.0442505	0.00946045	-0.03479
-0.0460815	0.0125122	-0.0335693
-0.0488281	0.0170898	-0.0317383
-0.0500488	0.0204468	-0.0296021
-0.0494385	0.0213623	-0.0280762
-0.0476074	0.0213623	-0.0262451
-0.0442505	0.0204468	-0.0238037
-0.0415039	0.0189209	-0.022583
-0.0390625	0.0149536	-0.0241089
-0.0360107	0.0088501	-0.0271606
-0.0317383	0.00244141	-0.0292969
-0.0305176	0.000305176	-0.0302124
-0.0357056	0.00427246	-0.0314331
-0.0454712	0.0112915	-0.0341797
-0.0552368	0.0170898	-0.038147
-0.062561	0.022583	-0.039978
-0.0686646	0.0292969	-0.0393677
-0.0756836	0.0375366	-0.038147
-0.0823975	0.0485229	-0.0338745
-0.0878906	0.0588989	-0.0289917
-0.0921631	0.0646973	-0.0274658
-0.0927734	0.0650024	-0.027771
-0.0869751	0.06073	-0.0262451
-0.0769043	0.0543213	-0.022583
-0.0662231	0.0473022	-0.0189209
-0.0543213	0.0405884	-0.0137329
-0.0430298	0.0332642	-0.00976563
-0.0335693	0.0262451	-0.00732422
-0.0271606	0.0204468	-0.00671387
-0.0231934	0.0164795	-0.00671387
-0.0222778	0.0143433	-0.00793457
-0.0238037	0.0146484	-0.00915527
-0.0253296	0.0167847	-0.00854492
-0.0271606	0.0195313	-0.00762939
-0.0317383	0.0222778	-0.00946045
-0.0384521	0.0250244	-0.0134277
-0.0442505	0.0274658	-0.0167847
-0.0494385	0.0292969	-0.0201416
-0.0534058	0.0314331	-0.0219727
-0.0549316	0.032959	-0.0219727
-0.0558472	0.0341797	-0.0216675
-0.0588989	0.0369263	-0.0219727
-0.0640869	0.0411987	-0.0228882
-0.0692749	0.0463867	-0.0228882
-0.0750732	0.0521851	-0.0228882
-0.0808716	0.0582886	-0.022583
-0.0827026	0.0604248	-0.0222778
-0.0796509	0.0576782	-0.0219727
-0.0753784	0.0531006	-0.0222778
-0.0720215	0.0488281	-0.0231934
-0.0689697	0.0448608	-0.0241089
-0.0668335	0.0424194	-0.0244141
-0.0643921	0.0393677	-0.0250244
-0.0613403	0.0341797	-0.0271606
-0.0579834	0.0283813	-0.0296021
-0.0558472	0.0250244	-0.0308228
-0.0515747	0.022583	-0.0289917
-0.0485229	0.0219727	-0.0265503
-0.0515747	0.0262451	-0.0253296
-0.0570679	0.0305176	-0.0265503
-0.0616455	0.032959	-0.0286865
-0.0628662	0.0344849	-0.0283813
-0.0622559	0.0360107	-0.0262451
-0.0619507	0.0372314	-0.0247192
-0.0640869	0.038147	-0.0259399
-0.0653076	0.0390625	-0.0262451
-0.062561	0.0390625	-0.0234985
-0.0579834	0.0390625	-0.0189209
-0.057373	0.0418091	-0.015564
-0.0585938	0.0448608	-0.0137329
-0.057373	0.045166	-0.012207
-0.0549316	0.0445557	-0.010376
-0.0537109	0.0457764	-0.00793457
-0.0564575	0.0497437	-0.00671387
-0.0588989	0.0518799	-0.00701904
-0.0595093	0.0515747	-0.00793457
-0.0582886	0.0521851	-0.00610352
-0.0540161	0.0527954	-0.0012207
-0.0515747	0.0552368	0.00366211
-0.0521851	0.0601196	0.00793457
-0.0491333	0.0616455	0.0125122
-0.0424194	0.0604248	0.0180054
-0.0363159	0.0610352	0.0247192
-0.0296021	0.062561	0.032959
-0.0238037	0.0637817	0.039978
-0.020752	0.0646973	0.0439453
-0.0192261	0.0640869	0.0448608
-0.0198364	0.0628662	0.0430298
-0.0219727	0.0619507	0.039978
-0.0238037	0.06073	0.0369263
-0.0244141	0.0592041	0.03479
-0.0247192	0.0567627	0.0320435
-0.0256348	0.0546265	0.0289917
-0.0247192	0.0531006	0.0283813
-0.0210571	0.0521851	0.0311279
-0.0177002	0.0512695	0.0335693
-0.0180054	0.0515747	0.0335693
-0.0210571	0.0537109	0.0326538
-0.0234985	0.0564575	0.032959
-0.0231934	0.0570679	0.0338745
-0.0204468	0.0558472	0.0354004
-0.0170898	0.0537109	0.0366211
-0.0140381	0.0515747	0.0375366
-0.0112915	0.0488281	0.0375366
-0.00915527	0.0448608	0.0357056
-0.00823975	0.039978	0.0317383
-0.00610352	0.03479	0.0286865
-0.00244141	0.0296021	0.0271606
0.00152588	0.0247192	0.0262451
0.00305176	0.0213623	0.0244141
0.00152588	0.0195313	0.0210571
-0.000915527	0.0183105	0.017395
-0.00305176	0.0180054	0.0149536
-0.00671387	0.0189209	0.012207
-0.0128174	0.0219727	0.00915527
-0.0198364	0.0256348	0.00579834
-0.0262451	0.0286865	0.00244141
-0.0317383	0.0308228	-0.000915527
-0.0363159	0.0308228	-0.00549316
-0.0411987	0.027771	-0.0134277
-0.0515747	0.0283813	-0.0231934
-0.0662231	0.0338745	-0.0323486
-0.0769043	0.0360107	-0.0408936
-0.0839233	0.0354004	-0.0485229
-0.0888062	0.0357056	-0.0531006
-0.0930786	0.0378418	-0.0552368
-0.0967407	0.0405884	-0.0561523
-0.0958252	0.039978	-0.0558472
-0.090332	0.0350952	-0.0552368
-0.0808716	0.0268555	-0.0540161
-0.0686646	0.0180054	-0.0506592
-0.0549316	0.00915527	-0.0457764
-0.0390625	0.000305176	-0.0387573
-0.0259399	-0.00701904	-0.032959
-0.017395	-0.0115967	-0.0289917
-0.0115967	-0.0146484	-0.0262451
-0.0088501	-0.0164795	-0.0253296
-0.0100708	-0.0152588	-0.0253296
-0.0158691	-0.0100708	-0.0259399
-0.0250244	-0.00213623	-0.0271606
-0.032959	0.00701904	-0.0259399
-0.038147	0.0149536	-0.0231934
-0.0421143	0.020752	-0.0213623
-0.0463867	0.0238037	-0.022583
-0.0497437	0.0244141	-0.0253296
-0.050354	0.0234985	-0.0268555
-0.0491333	0.0222778	-0.0268555
-0.0476074	0.0213623	-0.0262451
-0.0469971	0.020752	-0.0262451
-0.0479126	0.0201416	-0.027771
-0.0497437	0.0204468	-0.0292969
-0.0534058	0.0219727	-0.0314331
-0.0604248	0.0256348	-0.03479
-0.0698853	0.0292969	-0.0405884
-0.0793457	0.0311279	-0.0482178
-0.0854492	0.0308228	-0.0546265
-0.088501	0.0299072	-0.0585938
-0.090332	0.0311279	-0.0592041
-0.088501	0.0320435	-0.0564575
-0.0772095	0.0289917	-0.0482178
-0.0579834	0.0259399	-0.0320435
-0.0354004	0.0286865	-0.00671387
-0.0100708	0.0384521	0.0283813
0.0195313	0.055542	0.0750732
0.0561523	0.0787354	0.134888
0.0985718	0.106201	0.204773
0.143738	0.137329	0.281067
0.187378	0.170593	0.357971
0.220337	0.213318	0.433655
0.238647	0.265198	0.503845
0.248413	0.31189	0.560303
0.25116	0.34668	0.597839
0.239258	0.372009	0.611267
0.206909	0.391541	0.59845
0.159302	0.402527	0.561829
0.105286	0.39917	0.504456
0.045166	0.38147	0.426636
-0.0231934	0.353699	0.330505
-0.088501	0.318298	0.229797
-0.139771	0.275269	0.135498
-0.179443	0.22644	0.0469971
-0.20813	0.176086	-0.0320435
-0.22522	0.127869	-0.0973511
-0.228577	0.0839233	-0.144653
-0.219116	0.0445557	-0.174561
-0.200806	0.0131226	-0.187683
-0.177917	-0.00915527	-0.187073
-0.152283	-0.0238037	-0.176086
-0.129089	-0.0314331	-0.160522
-0.110474	-0.032959	-0.143433
-0.0952148	-0.0292969	-0.124512
-0.0814819	-0.0219727	-0.103455
-0.0704956	-0.0134277	-0.0839233
-0.0640869	-0.00396729	-0.0680542
-0.0622559	0.00579834	-0.0564575
-0.0631714	0.015564	-0.0476074
-0.062561	0.0216675	-0.0408936
-0.0604248	0.0234985	-0.0369263
-0.0592041	0.0228882	-0.0363159
-0.0585938	0.0201416	-0.0384521
-0.057373	0.0161743	-0.0411987
-0.0585938	0.015564	-0.0430298
-0.0628662	0.0177002	-0.045166
-0.0650024	0.0186157	-0.0463867
-0.0631714	0.015564	-0.0476074
-0.0619507	0.0140381	-0.0479126
-0.0643921	0.0161743	-0.0482178
-0.0680542	0.0195313	-0.0485229
-0.0692749	0.022583	-0.0466919
-0.0662231	0.0244141	-0.0418091
-0.0637817	0.0244141	-0.0393677
-0.0634766	0.0241089	-0.0393677
-0.0634766	0.0231934	-0.0402832
-0.0598145	0.020752	-0.0390625
-0.0531006	0.0161743	-0.0369263
-0.0463867	0.0119019	-0.0344849
-0.0415039	0.00946045	-0.0320435
-0.039978	0.0088501	-0.0311279
-0.0415039	0.00946045	-0.0320435
-0.0442505	0.0112915	-0.032959
-0.0463867	0.012207	-0.0341797
-0.0476074	0.012207	-0.0354004
-0.0479126	0.0125122	-0.0354004
-0.0479126	0.0143433	-0.0335693
-0.0491333	0.017395	-0.0317383
-0.0497437	0.0198364	-0.0299072
-0.0473022	0.0198364	-0.0274658
-0.043335	0.0177002	-0.0256348
-0.0384521	0.0158691	-0.022583
-0.0344849	0.0152588	-0.0192261
-0.0350952	0.0158691	-0.0192261
-0.0390625	0.0158691	-0.0231934
-0.0418091	0.0146484	-0.0271606
-0.0421143	0.0137329	-0.0283813
-0.0424194	0.0146484	-0.027771
-0.0439453	0.0161743	-0.027771
-0.045166	0.0170898	-0.0280762
-0.0436401	0.0167847	-0.0268555
-0.0445557	0.0186157	-0.0259399
-0.0457764	0.0222778	-0.0234985
-0.0430298	0.0253296	-0.0177002
-0.039978	0.0271606	-0.0128174
-0.0384521	0.0271606	-0.0112915
-0.0341797	0.0253296	-0.0088501
-0.0271606	0.0198364	-0.00732422
-0.0222778	0.015564	-0.00671387
-0.0234985	0.017395	-0.00610352
-0.0262451	0.0213623	-0.00488281
-0.0244141	0.0204468	-0.00396729
-0.0180054	0.0164795	-0.00152588
-0.00946045	0.0112915	0.00183105
-0.000305176	0.00518799	0.00488281
0.00762939	-0.000305176	0.00732422
0.010376	-0.0012207	0.00915527
0.0100708	-0.000305176	0.00976563
0.0119019	-0.00152588	0.010376
0.0161743	-0.00579834	0.010376
0.0210571	-0.0109863	0.0100708
0.0253296	-0.0152588	0.0100708
0.0283813	-0.0180054	0.010376
0.0296021	-0.0186157	0.0109863
0.0302124	-0.0180054	0.012207
0.0314331	-0.0177002	0.0137329
0.032959	-0.0170898	0.0158691
0.0344849	-0.0164795	0.0180054
0.0344849	-0.015564	0.0189209
0.0341797	-0.0137329	0.0204468
0.0357056	-0.0128174	0.0228882
0.0408936	-0.0128174	0.0280762
0.0488281	-0.0137329	0.0350952
0.0567627	-0.015564	0.0411987
0.0640869	-0.0177002	0.0463867
0.0720215	-0.0201416	0.0518799
0.0808716	-0.022583	0.0582886
0.088501	-0.0231934	0.0653076
0.0918579	-0.0189209	0.072937
0.0942993	-0.0140381	0.0802612
0.0985718	-0.012207	0.0863647
0.103455	-0.0109863	0.0924683
0.10376	-0.00640869	0.0973511
0.100403	0.0012207	0.101624
0.0982666	0.00793457	0.106201
0.098877	0.0115967	0.110474
0.098877	0.0112915	0.110168
0.0970459	0.00976563	0.106812
0.0946045	0.0109863	0.105591
0.0961304	0.0112915	0.107422
0.101013	0.00854492	0.109558
0.104675	0.00549316	0.110168
0.103455	0.00671387	0.110168
0.100098	0.0119019	0.112
0.0994873	0.0161743	0.115662
0.0991821	0.020752	0.119934
0.0997925	0.0244141	0.124207
0.105896	0.0213623	0.127258
0.113831	0.0149536	0.128784
0.114746	0.0134277	0.128174
0.109863	0.0158691	0.125732
0.102234	0.0195313	0.121765
0.090332	0.0228882	0.11322
0.078125	0.0228882	0.101013
0.0680542	0.0213623	0.0894165
0.0588989	0.0216675	0.0805664
0.0476074	0.0244141	0.0720215
0.0357056	0.0289917	0.0646973
0.0250244	0.0326538	0.0576782
0.0164795	0.0344849	0.0509644
0.0088501	0.0341797	0.0430298
0.00244141	0.0326538	0.0350952
-0.00244141	0.0308228	0.0283813
-0.00671387	0.0289917	0.0222778
-0.0115967	0.027771	0.0161743
-0.0183105	0.0271606	0.0088501
-0.0268555	0.0271606	0.000305176
-0.0357056	0.0280762	-0.00762939
-0.0430298	0.0292969	-0.0137329
-0.0485229	0.0299072	-0.0186157
-0.0540161	0.0302124	-0.0238037
-0.0579834	0.0305176	-0.0274658
-0.0598145	0.0311279	-0.0286865
-0.0628662	0.0320435	-0.0308228
-0.0656128	0.0302124	-0.0354004
-0.0674438	0.0283813	-0.0390625
-0.072937	0.0317383	-0.0411987
-0.0796509	0.0372314	-0.0424194
-0.0866699	0.0408936	-0.0457764
-0.0918579	0.0421143	-0.0497437
-0.0915527	0.0396729	-0.0518799
-0.088501	0.0360107	-0.0524902
-0.0869751	0.0350952	-0.0518799
-0.0888062	0.0360107	-0.0527954
-0.090332	0.03479	-0.055542
-0.0872803	0.0326538	-0.0546265
-0.0820923	0.0308228	-0.0512695
-0.0769043	0.0299072	-0.0469971
-0.072937	0.0289917	-0.0439453
-0.0680542	0.0268555	-0.0411987
-0.0643921	0.0247192	-0.0396729
-0.0628662	0.0238037	-0.0390625
-0.0619507	0.0238037	-0.038147
-0.0601196	0.0231934	-0.0369263
-0.0582886	0.0219727	-0.0363159
-0.0570679	0.0201416	-0.0369263
-0.0570679	0.0183105	-0.0387573
-0.0592041	0.0177002	-0.0415039
-0.062561	0.0183105	-0.0442505
-0.067749	0.0198364	-0.0479126
-0.0765991	0.0222778	-0.0543213
-0.0878906	0.0253296	-0.062561
-0.0958252	0.0280762	-0.067749
-0.098877	0.0311279	-0.067749
-0.101013	0.0354004	-0.0656128
-0.102234	0.039978	-0.0622559
-0.103149	0.0442505	-0.0588989
-0.100708	0.0454712	-0.0552368
-0.0952148	0.0439453	-0.0512695
-0.0921631	0.0463867	-0.0457764
-0.088501	0.0494385	-0.0390625
-0.0830078	0.050354	-0.0326538
-0.078125	0.0491333	-0.0289917
-0.0735474	0.0445557	-0.0289917
-0.0686646	0.0375366	-0.0311279
-0.0650024	0.0320435	-0.032959
-0.0674438	0.0314331	-0.0360107
-0.0723267	0.0323486	-0.039978
-0.0738525	0.0302124	-0.0436401
-0.0726318	0.0259399	-0.0466919
-0.0720215	0.0228882	-0.0491333
-0.0695801	0.0216675	-0.0479126
-0.0662231	0.0213623	-0.0448608
-0.065918	0.0213623	-0.0445557
-0.065918	0.0198364	-0.0460815
-0.0634766	0.0161743	-0.0473022
-0.0604248	0.0131226	-0.0473022
-0.0598145	0.0134277	-0.0463867
-0.0643921	0.0167847	-0.0476074
-0.0698853	0.0201416	-0.0497437
-0.0704956	0.0189209	-0.0515747
-0.0708008	0.0167847	-0.0540161
-0.072937	0.0180054	-0.0549316
-0.0750732	0.0204468	-0.0546265
-0.0762939	0.0219727	-0.0543213
-0.0759888	0.0213623	-0.0546265
-0.0723267	0.0183105	-0.0540161
-0.0671387	0.0152588	-0.0518799
-0.062561	0.0140381	-0.0485229
-0.0604248	0.0146484	-0.0457764
-0.0616455	0.0152588	-0.0463867
-0.0634766	0.0149536	-0.0485229
-0.0637817	0.0134277	-0.050354
-0.0628662	0.0112915	-0.0515747
-0.0631714	0.010376	-0.0527954
-0.0671387	0.0131226	-0.0540161
-0.0717163	0.0158691	-0.0558472
-0.0726318	0.0149536	-0.0576782
-0.071106	0.0128174	-0.0582886
-0.0695801	0.0125122	-0.0570679
-0.0698853	0.0152588	-0.0546265
-0.0717163	0.0195313	-0.0521851
-0.0717163	0.0210571	-0.0506592
-0.0695801	0.0204468	-0.0491333
-0.0674438	0.0195313	-0.0479126
-0.0665283	0.0180054	-0.0485229
-0.0650024	0.0140381	-0.0509644
-0.0628662	0.00793457	-0.0549316
-0.0585938	0.00213623	-0.0564575
-0.0546265	-0.00152588	-0.0561523
-0.0518799	-0.00396729	-0.0558472
-0.0500488	-0.00671387	-0.0567627
-0.0500488	-0.00823975	-0.0582886
-0.0534058	-0.00579834	-0.0592041
-0.0592041	-0.00152588	-0.06073
-0.0631714	0.000305176	-0.0628662
-0.0653076	0.00335693	-0.0619507
-0.0665283	0.00854492	-0.0579834
-0.0668335	0.0115967	-0.0552368
-0.0662231	0.0109863	-0.0552368
-0.0640869	0.00762939	-0.0564575
-0.0604248	0.00366211	-0.0567627
-0.055542	0.000610352	-0.0549316
-0.0518799	-0.0012207	-0.0531006
-0.0497437	-0.00213623	-0.0518799
-0.0473022	-0.00488281	-0.0521851
-0.0442505	-0.00915527	-0.0534058
-0.0415039	-0.0137329	-0.0552368
-0.043335	-0.0164795	-0.0598145
-0.0515747	-0.0164795	-0.0680542
-0.062561	-0.0131226	-0.0756836
-0.0665283	-0.00915527	-0.0756836
-0.0653076	-0.00610352	-0.0714111
-0.0656128	-0.00305176	-0.0686646
-0.0698853	0.00152588	-0.0683594
-0.0732422	0.00732422	-0.065918
-0.0756836	0.0140381	-0.0616455
-0.0775146	0.020752	-0.0567627
-0.078125	0.0241089	-0.0540161
-0.0787354	0.0250244	-0.0537109
-0.0799561	0.0259399	-0.0540161
-0.0820923	0.0262451	-0.0558472
-0.0839233	0.0247192	-0.0592041
-0.0845337	0.0219727	-0.062561
-0.0854492	0.0198364	-0.0656128
-0.0869751	0.0192261	-0.067749
-0.0872803	0.0192261	-0.0680542
-0.0888062	0.0210571	-0.067749
-0.0891113	0.0228882	-0.0662231
-0.083313	0.022583	-0.06073
-0.0753784	0.0210571	-0.0543213
-0.0723267	0.0228882	-0.0494385
-0.072937	0.027771	-0.045166
-0.0714111	0.0296021	-0.0418091
-0.0646973	0.0244141	-0.0402832
-0.0549316	0.0140381	-0.0408936
-0.0491333	0.00701904	-0.0421143
-0.0491333	0.00610352	-0.0430298
-0.0494385	0.00579834	-0.0436401
-0.0512695	0.00671387	-0.0445557
-0.0524902	0.00579834	-0.0466919
-0.0515747	0.00274658	-0.0488281
-0.0512695	0.000305176	-0.0509644
-0.0540161	0.000915527	-0.0531006
-0.0595093	0.00457764	-0.0549316
-0.062561	0.00854492	-0.0540161
-0.0628662	0.0109863	-0.0518799
-0.0616455	0.0109863	-0.0506592
-0.0595093	0.0100708	-0.0494385
-0.057373	0.00915527	-0.0482178
-0.0546265	0.00854492	-0.0460815
-0.0527954	0.00854492	-0.0442505
-0.0515747	0.00854492	-0.0430298
-0.0500488	0.00823975	-0.0418091
-0.0463867	0.00640869	-0.039978
-0.045166	0.00549316	-0.0396729
-0.0482178	0.00732422	-0.0408936
-0.0531006	0.0106812	-0.0424194
-0.0579834	0.0137329	-0.0442505
-0.0619507	0.0158691	-0.0460815
-0.0662231	0.0177002	-0.0485229
-0.0708008	0.0201416	-0.0506592
-0.0750732	0.022583	-0.0524902
-0.0790405	0.0253296	-0.0537109
-0.0820923	0.0280762	-0.0540161
-0.083313	0.0305176	-0.0527954
-0.088501	0.03479	-0.0537109
-0.0964355	0.0408936	-0.055542
-0.103149	0.0479126	-0.0552368
-0.107117	0.0531006	-0.0540161
-0.109253	0.0546265	-0.0546265
-0.109558	0.0537109	-0.0558472
-0.105591	0.0512695	-0.0543213
-0.0973511	0.0466919	-0.0506592
-0.0878906	0.0418091	-0.0460815
-0.0772095	0.0350952	-0.0421143
-0.062561	0.0234985	-0.0390625
-0.0460815	0.00976563	-0.0363159
-0.0323486	-0.0012207	-0.0335693
-0.0274658	-0.00396729	-0.0314331
-0.0289917	-0.00183105	-0.0308228
-0.0286865	-0.00305176	-0.0317383
-0.027771	-0.00549316	-0.0332642
-0.0341797	-0.00274658	-0.0369263
-0.050354	0.00518799	-0.045166
-0.0671387	0.0131226	-0.0540161
-0.0762939	0.0177002	-0.0585938
-0.0735474	0.0189209	-0.0546265
-0.0631714	0.0180054	-0.045166
-0.0512695	0.0161743	-0.0350952
-0.0402832	0.0140381	-0.0262451
-0.0305176	0.0128174	-0.0177002
-0.0198364	0.0115967	-0.00823975
-0.00946045	0.0119019	0.00244141
-0.0012207	0.0131226	0.0119019
0.00335693	0.0152588	0.0186157
0.00335693	0.0177002	0.0210571
-0.000610352	0.0201416	0.0195313
-0.00762939	0.022583	0.0149536
-0.0161743	0.0241089	0.00793457
-0.0244141	0.0241089	-0.000305176
-0.0286865	0.022583	-0.00610352
-0.0286865	0.0204468	-0.00823975
-0.0271606	0.0192261	-0.00793457
-0.0256348	0.0180054	-0.00762939
-0.0259399	0.0180054	-0.00793457
-0.027771	0.0180054	-0.00976563
-0.0262451	0.0161743	-0.0100708
-0.0216675	0.0143433	-0.00732422
-0.0192261	0.0149536	-0.00427246
-0.0222778	0.0183105	-0.00396729
-0.0274658	0.0228882	-0.00457764
-0.0320435	0.0265503	-0.00549316
-0.0378418	0.0317383	-0.00610352
-0.0509644	0.0442505	-0.00671387
-0.0668335	0.0601196	-0.00671387
-0.0717163	0.0640869	-0.00762939
-0.0631714	0.0534058	-0.00976563
-0.0506592	0.038147	-0.0125122
-0.0418091	0.0250244	-0.0167847
-0.0363159	0.0140381	-0.0222778
-0.0311279	0.00427246	-0.0268555
-0.0253296	-0.00488281	-0.0302124
-0.0164795	-0.0164795	-0.032959
-0.00579834	-0.0305176	-0.0363159
0.00274658	-0.0411987	-0.0384521
0.00396729	-0.0442505	-0.0402832
-0.00274658	-0.0393677	-0.0421143
-0.0131226	-0.0302124	-0.043335
-0.0256348	-0.0201416	-0.0457764
-0.0387573	-0.0125122	-0.0512695
-0.0500488	-0.0088501	-0.0588989
-0.0576782	-0.0088501	-0.0665283
-0.062561	-0.010376	-0.072937
-0.0653076	-0.012207	-0.0775146
-0.0680542	-0.0140381	-0.0820923
-0.0741577	-0.015564	-0.0897217
-0.0796509	-0.0167847	-0.0964355
-0.0787354	-0.0170898	-0.0958252
-0.0723267	-0.0170898	-0.0894165
-0.065918	-0.0161743	-0.0820923
-0.0616455	-0.0137329	-0.0753784
-0.0576782	-0.0106812	-0.0683594
-0.0527954	-0.00823975	-0.0610352
-0.0476074	-0.00610352	-0.0537109
-0.0445557	-0.00305176	-0.0476074
-0.0418091	-0.00183105	-0.0436401
-0.0393677	-0.00274658	-0.0421143
-0.0384521	-0.00427246	-0.0427246
-0.0387573	-0.00671387	-0.0454712
-0.045166	-0.00488281	-0.0500488
-0.0561523	0.000305176	-0.0558472
-0.0662231	0.00396729	-0.0622559
-0.0714111	0.00457764	-0.0668335
-0.0708008	0.00213623	-0.0686646
-0.0692749	-0.00183105	-0.071106
-0.0692749	-0.00274658	-0.0720215
-0.0683594	-0.000610352	-0.0689697
-0.0650024	0.000610352	-0.0643921
-0.0622559	0.000915527	-0.0613403
-0.0604248	0.00152588	-0.0588989
-0.0595093	0.00183105	-0.0576782
-0.0598145	0.00274658	-0.0570679
-0.06073	0.00305176	-0.0576782
-0.0622559	0.00213623	-0.0601196
-0.0650024	0.0012207	-0.0637817
-0.0683594	0.0012207	-0.0671387
-0.0683594	0.000610352	-0.067749
-0.06073	-0.000305176	-0.0610352
-0.0460815	-0.000305176	-0.0463867
-0.0271606	0.00244141	-0.0247192
-0.00305176	0.00915527	0.00610352
0.0292969	0.0219727	0.0512695
0.0708008	0.0402832	0.111084
0.119324	0.0637817	0.183105
0.169678	0.0921631	0.261841
0.216064	0.126038	0.342102
0.253906	0.165405	0.419312
0.280762	0.20874	0.489502
0.292664	0.252075	0.544739
0.285339	0.293274	0.578613
0.255127	0.331726	0.586853
0.205383	0.362854	0.568237
0.142517	0.38269	0.525208
0.0689697	0.390015	0.458984
-0.0115967	0.383606	0.372009
-0.0891113	0.361938	0.272827
-0.15564	0.324402	0.168762
-0.205688	0.273438	0.067749
-0.235901	0.215759	-0.0201416
-0.245056	0.154419	-0.0906372
-0.235596	0.0912476	-0.144348
-0.213318	0.0320435	-0.181274
-0.185547	-0.015564	-0.201111
-0.152283	-0.0524902	-0.204773
-0.119629	-0.0753784	-0.195007
-0.0946045	-0.0827026	-0.177307
-0.0772095	-0.0808716	-0.158081
-0.0637817	-0.0750732	-0.138855
-0.0540161	-0.0668335	-0.12085
-0.0482178	-0.057373	-0.105591
-0.0460815	-0.0482178	-0.0942993
-0.0494385	-0.0387573	-0.0881958
-0.0531006	-0.0314331	-0.0845337
-0.0515747	-0.0286865	-0.0802612
-0.0457764	-0.0296021	-0.0753784
-0.0396729	-0.0317383	-0.0714111
-0.0363159	-0.0323486	-0.0686646
-0.0375366	-0.0305176	-0.0680542
-0.0402832	-0.0271606	-0.0674438
-0.0427246	-0.0238037	-0.0665283
-0.045166	-0.0210571	-0.0662231
-0.0473022	-0.0195313	-0.0668335
-0.0494385	-0.0183105	-0.067749
-0.0512695	-0.0186157	-0.0698853
-0.0531006	-0.0195313	-0.0726318
-0.0561523	-0.0183105	-0.0744629
-0.0601196	-0.0149536	-0.0750732
-0.0634766	-0.0128174	-0.0762939
-0.0662231	-0.010376	-0.0765991
-0.0723267	-0.00427246	-0.0765991
-0.0790405	0.00274658	-0.0762939
-0.083313	0.00640869	-0.0769043
-0.0839233	0.00579834	-0.078125
-0.0823975	0.00366211	-0.0787354
-0.0817871	0.00518799	-0.0765991
-0.0814819	0.00946045	-0.0720215
-0.0787354	0.0109863	-0.067749
-0.0735474	0.00854492	-0.0650024
-0.0662231	0.00366211	-0.062561
-0.0610352	0.00183105	-0.0592041
-0.062561	0.00427246	-0.0582886
-0.0643921	0.00640869	-0.0579834
-0.0640869	0.00701904	-0.0570679
-0.0665283	0.00976563	-0.0567627
-0.0701904	0.0128174	-0.057373
-0.0723267	0.0146484	-0.0576782
-0.0723267	0.0146484	-0.0576782
-0.071106	0.0137329	-0.057373
-0.0686646	0.0115967	-0.0570679
-0.0650024	0.0106812	-0.0543213
-0.0616455	0.0125122	-0.0491333
-0.0567627	0.0134277	-0.043335
-0.0463867	0.00976563	-0.0366211
-0.032959	0.00335693	-0.0296021
-0.0216675	-0.00274658	-0.0244141
-0.0170898	-0.00640869	-0.0234985
-0.0164795	-0.00732422	-0.0238037
-0.0164795	-0.00793457	-0.0244141
-0.015564	-0.00946045	-0.0250244
-0.015564	-0.0125122	-0.0280762
-0.0170898	-0.015564	-0.0326538
-0.0152588	-0.0167847	-0.0320435
-0.0125122	-0.0158691	-0.0283813
-0.012207	-0.0140381	-0.0262451
-0.0131226	-0.012207	-0.0253296
-0.0131226	-0.010376	-0.0234985
-0.0112915	-0.0088501	-0.0201416
-0.00823975	-0.00793457	-0.0161743
-0.00427246	-0.00762939	-0.0119019
-0.00183105	-0.00762939	-0.00946045
-0.000610352	-0.00793457	-0.00854492
0.000305176	-0.010376	-0.0100708
-0.000305176	-0.0134277	-0.0137329
-0.00549316	-0.0109863	-0.0164795
-0.00915527	-0.00854492	-0.0177002
-0.00732422	-0.0106812	-0.0180054
-0.00518799	-0.0128174	-0.0180054
-0.00671387	-0.0100708	-0.0167847
-0.0115967	-0.00244141	-0.0140381
-0.0195313	0.0100708	-0.00946045
-0.0234985	0.0192261	-0.00427246
-0.0195313	0.0189209	-0.000610352
-0.0134277	0.015564	0.00213623
-0.010376	0.0152588	0.00488281
-0.0106812	0.0189209	0.00823975
-0.0088501	0.0204468	0.0115967
-0.00274658	0.0180054	0.0152588
0.00640869	0.0119019	0.0183105
0.0192261	0.00274658	0.0219727
0.0354004	-0.00793457	0.0274658
0.0527954	-0.0177002	0.0350952
0.067749	-0.0253296	0.0424194
0.0805664	-0.0311279	0.0494385
0.0930786	-0.0354004	0.0576782
0.101929	-0.0369263	0.0650024
0.105286	-0.0350952	0.0701904
0.107422	-0.0335693	0.0738525
0.107422	-0.0317383	0.0756836
0.106506	-0.0289917	0.0775146
0.108032	-0.0250244	0.0830078
0.112	-0.0210571	0.0909424
0.115967	-0.017395	0.0985718
0.12085	-0.0146484	0.106201
0.127258	-0.0128174	0.114441
0.134277	-0.0115967	0.122681
0.138855	-0.00946045	0.129395
0.140076	-0.00701904	0.133057
0.139771	-0.00457764	0.135193
0.136108	-0.00183105	0.134277
0.127869	0.00244141	0.13031
0.119324	0.00793457	0.127258
0.109863	0.0143433	0.124207
0.0961304	0.022583	0.118713
0.0784302	0.0338745	0.112305
0.062561	0.0436401	0.106201
0.0527954	0.0485229	0.101318
0.0497437	0.0476074	0.0973511
0.0546265	0.0408936	0.09552
0.0610352	0.0317383	0.0927734
0.0582886	0.0280762	0.0863647
0.0500488	0.0286865	0.0787354
0.0439453	0.0283813	0.0723267
0.039978	0.0247192	0.0646973
0.0363159	0.0189209	0.0552368
0.0317383	0.0134277	0.045166
0.0238037	0.0112915	0.0350952
0.0109863	0.0149536	0.0259399
-0.00549316	0.0244141	0.0189209
-0.0189209	0.0314331	0.0125122
-0.027771	0.0317383	0.00396729
-0.0326538	0.027771	-0.00488281
-0.03479	0.0219727	-0.0128174
-0.0357056	0.0161743	-0.0195313
-0.0369263	0.0112915	-0.0256348
-0.0378418	0.00640869	-0.0314331
-0.0369263	0.000305176	-0.0366211
-0.0332642	-0.00518799	-0.0384521
-0.0302124	-0.0088501	-0.0390625
-0.0314331	-0.0088501	-0.0402832
-0.0369263	-0.00579834	-0.0427246
-0.0430298	-0.0012207	-0.0442505
-0.0482178	0.00396729	-0.0442505
-0.0540161	0.0100708	-0.0439453
-0.0610352	0.0161743	-0.0448608
-0.0668335	0.020752	-0.0460815
-0.0698853	0.0228882	-0.0469971
-0.0708008	0.0234985	-0.0473022
-0.0720215	0.0244141	-0.0476074
-0.0744629	0.0265503	-0.0479126
-0.0723267	0.0250244	-0.0473022
-0.0665283	0.0183105	-0.0482178
-0.0619507	0.012207	-0.0497437
-0.0634766	0.0109863	-0.0524902
-0.0653076	0.0106812	-0.0546265
-0.0646973	0.0109863	-0.0537109
-0.0637817	0.0128174	-0.0509644
-0.0646973	0.0149536	-0.0497437
-0.0662231	0.0149536	-0.0512695
-0.067749	0.0146484	-0.0531006
-0.0686646	0.0158691	-0.0527954
-0.0683594	0.0183105	-0.0500488
-0.0668335	0.0201416	-0.0466919
-0.0665283	0.0210571	-0.0454712
-0.0674438	0.0201416	-0.0473022
-0.0671387	0.0164795	-0.0506592
-0.065918	0.0119019	-0.0540161
-0.0662231	0.0100708	-0.0561523
-0.0637817	0.00915527	-0.0546265
-0.06073	0.00823975	-0.0524902
-0.0588989	0.0088501	-0.0500488
-0.0567627	0.00915527	-0.0476074
-0.0534058	0.00915527	-0.0442505
-0.0491333	0.00793457	-0.0411987
-0.0439453	0.00610352	-0.0378418
-0.0390625	0.00366211	-0.0354004
-0.0354004	0.000915527	-0.0344849
-0.0341797	-0.00213623	-0.0363159
-0.0341797	-0.00518799	-0.0393677
-0.0350952	-0.00823975	-0.043335
-0.0375366	-0.0106812	-0.0482178
-0.0411987	-0.012207	-0.0534058
-0.0454712	-0.0125122	-0.0579834
-0.0488281	-0.0115967	-0.0604248
-0.0506592	-0.0100708	-0.06073
-0.0518799	-0.00732422	-0.0592041
-0.0546265	-0.0012207	-0.0558472
-0.0588989	0.00610352	-0.0527954
-0.0604248	0.0100708	-0.050354
-0.0592041	0.0109863	-0.0482178
-0.0582886	0.0115967	-0.0466919
-0.0595093	0.0131226	-0.0463867
-0.0616455	0.0149536	-0.0466919
-0.0650024	0.0180054	-0.0469971
-0.0717163	0.0241089	-0.0476074
-0.0787354	0.0320435	-0.0466919
-0.0793457	0.03479	-0.0445557
-0.0762939	0.0326538	-0.0436401
-0.0732422	0.0292969	-0.0439453
-0.0704956	0.0256348	-0.0448608
-0.0656128	0.0213623	-0.0442505
-0.06073	0.017395	-0.043335
-0.0561523	0.0131226	-0.0430298
-0.0494385	0.00671387	-0.0427246
-0.0411987	-0.00244141	-0.0436401
-0.0311279	-0.0146484	-0.0457764
-0.0274658	-0.0219727	-0.0494385
-0.0317383	-0.0210571	-0.0527954
-0.0369263	-0.0177002	-0.0546265
-0.0357056	-0.0158691	-0.0515747
-0.0335693	-0.0146484	-0.0482178
-0.0317383	-0.0143433	-0.0460815
-0.0305176	-0.0140381	-0.0445557
-0.0286865	-0.0128174	-0.0415039
-0.0256348	-0.0125122	-0.038147
-0.0222778	-0.0152588	-0.0375366
-0.0198364	-0.0189209	-0.0387573
-0.0189209	-0.0219727	-0.0408936
-0.017395	-0.0241089	-0.0415039
-0.017395	-0.0247192	-0.0421143
-0.0204468	-0.0244141	-0.0448608
-0.0256348	-0.0238037	-0.0494385
-0.0308228	-0.0231934	-0.0540161
-0.03479	-0.022583	-0.057373
-0.0344849	-0.0231934	-0.0576782
-0.0305176	-0.0256348	-0.0561523
-0.0308228	-0.0238037	-0.0546265
-0.0363159	-0.0180054	-0.0543213
-0.0393677	-0.0149536	-0.0543213
-0.0363159	-0.0164795	-0.0527954
-0.0326538	-0.0192261	-0.0518799
-0.0335693	-0.0195313	-0.0531006
-0.0387573	-0.017395	-0.0561523
-0.0436401	-0.0143433	-0.0579834
-0.0469971	-0.010376	-0.057373
-0.0491333	-0.00762939	-0.0567627
-0.0494385	-0.00854492	-0.0579834
-0.0500488	-0.0109863	-0.0610352
-0.0509644	-0.0131226	-0.0640869
-0.0506592	-0.0149536	-0.0656128
-0.0491333	-0.0180054	-0.0671387
-0.0466919	-0.020752	-0.0674438
-0.0445557	-0.0231934	-0.067749
-0.0442505	-0.0250244	-0.0692749
-0.0457764	-0.0244141	-0.0701904
-0.0457764	-0.022583	-0.0683594
-0.0457764	-0.0189209	-0.0646973
-0.0476074	-0.0125122	-0.0601196
-0.0518799	-0.00518799	-0.0570679
-0.0558472	0.000305176	-0.055542
-0.0518799	0.000915527	-0.0509644
-0.0439453	-0.00152588	-0.0454712
-0.0378418	-0.00457764	-0.0424194
-0.0335693	-0.0088501	-0.0424194
-0.0283813	-0.015564	-0.0439453
-0.0204468	-0.0250244	-0.0454712
-0.012207	-0.0360107	-0.0482178
-0.00610352	-0.0457764	-0.0518799
-0.00366211	-0.0524902	-0.0561523
-0.00427246	-0.0558472	-0.0601196
-0.00976563	-0.0552368	-0.0650024
-0.0195313	-0.0509644	-0.0704956
-0.0308228	-0.0448608	-0.0756836
-0.0393677	-0.038147	-0.0775146
-0.0460815	-0.0305176	-0.0765991
-0.0506592	-0.0228882	-0.0735474
-0.0500488	-0.0170898	-0.0671387
-0.0466919	-0.012207	-0.0588989
-0.0430298	-0.00793457	-0.0509644
-0.0372314	-0.00610352	-0.043335
-0.0308228	-0.00549316	-0.0363159
-0.0253296	-0.00549316	-0.0308228
-0.0231934	-0.00396729	-0.0271606
-0.0234985	-0.00244141	-0.0259399
-0.0244141	-0.00488281	-0.0292969
-0.0280762	-0.0088501	-0.0369263
-0.0375366	-0.00946045	-0.0469971
-0.0476074	-0.00671387	-0.0543213
-0.0570679	-0.00152588	-0.0585938
-0.0628662	0.000915527	-0.0619507
-0.0650024	0.000610352	-0.0643921
-0.0668335	0.0012207	-0.0656128
-0.067749	0.00274658	-0.0650024
-0.0671387	0.00457764	-0.062561
-0.0662231	0.00671387	-0.0595093
-0.0631714	0.00671387	-0.0564575
-0.0576782	0.00366211	-0.0540161
-0.0515747	-0.000610352	-0.0521851
-0.0466919	-0.00366211	-0.050354
-0.0454712	-0.00396729	-0.0494385
-0.0454712	-0.00335693	-0.0488281
-0.0427246	-0.00518799	-0.0479126
-0.0384521	-0.00762939	-0.0460815
-0.0350952	-0.0088501	-0.0439453
-0.03479	-0.00793457	-0.0427246
-0.0369263	-0.00732422	-0.0442505
-0.0363159	-0.00762939	-0.0439453
-0.0308228	-0.0106812	-0.0415039
-0.0234985	-0.015564	-0.0390625
-0.0189209	-0.0204468	-0.0393677
-0.0186157	-0.0234985	-0.0421143
-0.0204468	-0.0244141	-0.0448608
-0.0228882	-0.0228882	-0.0457764
-0.0250244	-0.0195313	-0.0445557
-0.0280762	-0.0137329	-0.0418091
-0.0338745	-0.00640869	-0.0402832
-0.0421143	0.000305176	-0.0418091
-0.0488281	0.00457764	-0.0442505
-0.050354	0.00549316	-0.0448608
-0.0497437	0.00549316	-0.0442505
-0.0479126	0.00396729	-0.0439453
-0.0436401	0.000305176	-0.043335
-0.0375366	-0.00579834	-0.043335
-0.032959	-0.0137329	-0.0466919
-0.0305176	-0.0210571	-0.0515747
-0.0241089	-0.0271606	-0.0512695
-0.0143433	-0.0308228	-0.045166
-0.00701904	-0.0323486	-0.0393677
-0.00671387	-0.0296021	-0.0363159
-0.0131226	-0.0216675	-0.03479
-0.017395	-0.0128174	-0.0302124
-0.015564	-0.00671387	-0.0222778
-0.0128174	-0.00183105	-0.0146484
-0.0158691	0.00488281	-0.0109863
-0.022583	0.0128174	-0.00976563
-0.0271606	0.0180054	-0.00915527
-0.0296021	0.0192261	-0.010376
-0.0332642	0.0201416	-0.0131226
-0.0387573	0.0216675	-0.0170898
-0.0424194	0.0198364	-0.022583
-0.0415039	0.0137329	-0.027771
-0.0372314	0.00732422	-0.0299072
-0.0341797	0.00518799	-0.0289917
-0.0302124	0.00335693	-0.0268555
-0.0231934	-0.0012207	-0.0244141
-0.0125122	-0.00579834	-0.0183105
0.0012207	-0.0100708	-0.0088501
0.0137329	-0.0140381	-0.000305176
0.0204468	-0.0152588	0.00518799
0.0250244	-0.0164795	0.00854492
0.0286865	-0.0177002	0.0109863
0.0311279	-0.0183105	0.0128174
0.0320435	-0.017395	0.0146484
0.0323486	-0.0180054	0.0143433
0.0335693	-0.0216675	0.0119019
0.0338745	-0.0259399	0.00793457
0.0302124	-0.0268555	0.00335693
0.0244141	-0.0259399	-0.00152588
0.0189209	-0.0244141	-0.00549316
0.0143433	-0.0231934	-0.0088501
0.0128174	-0.0228882	-0.0100708
0.012207	-0.022583	-0.010376
0.00946045	-0.0204468	-0.0109863
0.00579834	-0.0170898	-0.0112915
0.00305176	-0.0146484	-0.0115967
0.00152588	-0.0131226	-0.0115967
0.000305176	-0.0137329	-0.0134277
0	-0.0167847	-0.0167847
0.00152588	-0.0210571	-0.0195313
0.00366211	-0.0247192	-0.0210571
0.00549316	-0.0286865	-0.0231934
0.00671387	-0.0341797	-0.0274658
0.00579834	-0.039978	-0.0341797
0.00183105	-0.0436401	-0.0418091
-0.00396729	-0.0457764	-0.0497437
-0.0131226	-0.0454712	-0.0585938
-0.0274658	-0.0405884	-0.0680542
-0.043335	-0.0350952	-0.0784302
-0.0585938	-0.0302124	-0.0888062
-0.0726318	-0.0250244	-0.0976563
-0.0787354	-0.0213623	-0.100098
-0.0747681	-0.0192261	-0.0939941
-0.0680542	-0.0183105	-0.0863647
-0.0585938	-0.0204468	-0.0790405
-0.0473022	-0.0247192	-0.0720215
-0.0363159	-0.0274658	-0.0637817
-0.0271606	-0.0286865	-0.0558472
-0.0128174	-0.0335693	-0.0463867
0.00335693	-0.0405884	-0.0372314
0.0128174	-0.0463867	-0.0335693
0.0143433	-0.0500488	-0.0357056
0.010376	-0.0524902	-0.0421143
0.0012207	-0.0515747	-0.050354
-0.0088501	-0.0488281	-0.0576782
-0.0177002	-0.0457764	-0.0634766
-0.0238037	-0.0430298	-0.0668335
-0.0271606	-0.0405884	-0.067749
-0.0289917	-0.0378418	-0.0668335
-0.0311279	-0.0344849	-0.0656128
-0.03479	-0.0292969	-0.0640869
-0.0396729	-0.0234985	-0.0631714
-0.0469971	-0.0161743	-0.0631714
-0.0534058	-0.0115967	-0.0650024
-0.057373	-0.0100708	-0.0674438
-0.057373	-0.012207	-0.0695801
-0.0540161	-0.0164795	-0.0704956
-0.0469971	-0.0231934	-0.0701904
-0.0350952	-0.0332642	-0.0683594
-0.0201416	-0.0427246	-0.0628662
-0.00671387	-0.0448608	-0.0515747
0.00793457	-0.0411987	-0.0332642
0.027771	-0.0344849	-0.00671387
0.0521851	-0.0234985	0.0286865
0.0827026	-0.00915527	0.0735474
0.12146	0.00762939	0.129089
0.163269	0.0296021	0.192871
0.19928	0.0610352	0.260315
0.227966	0.100403	0.328369
0.253906	0.140686	0.394592
0.276184	0.179443	0.455627
0.290222	0.213623	0.503845
0.289307	0.242004	0.531311
0.269165	0.265198	0.534363
0.228577	0.284729	0.513306
0.169678	0.299988	0.469666
0.098877	0.307007	0.405884
0.0241089	0.301819	0.325928
-0.0497437	0.284424	0.23468
-0.116272	0.255432	0.13916
-0.169678	0.217896	0.0482178
-0.20874	0.176697	-0.0320435
-0.232239	0.133972	-0.0982666
-0.239258	0.0909424	-0.148315
-0.229797	0.0497437	-0.180054
-0.209045	0.0125122	-0.196533
-0.179443	-0.0195313	-0.198975
-0.146179	-0.0445557	-0.190735
-0.115967	-0.0616455	-0.177612
-0.088501	-0.0708008	-0.159302
-0.0640869	-0.0735474	-0.137634
-0.0479126	-0.071106	-0.119019
-0.0405884	-0.0653076	-0.105896
-0.038147	-0.0579834	-0.0961304
-0.0354004	-0.050354	-0.0857544
-0.0338745	-0.0408936	-0.0747681
-0.0375366	-0.0274658	-0.0650024
-0.0408936	-0.0164795	-0.057373
-0.043335	-0.0088501	-0.0521851
-0.0494385	0.000915527	-0.0485229
-0.0549316	0.00823975	-0.0466919
-0.0543213	0.0088501	-0.0454712
-0.0497437	0.00488281	-0.0448608
-0.0463867	0.000915527	-0.0454712
-0.0442505	-0.00274658	-0.0469971
-0.0408936	-0.00762939	-0.0485229
-0.0363159	-0.0134277	-0.0497437
-0.0308228	-0.0201416	-0.0509644
-0.0241089	-0.0283813	-0.0524902
-0.0183105	-0.03479	-0.0531006
-0.0152588	-0.038147	-0.0534058
-0.0161743	-0.0372314	-0.0534058
-0.0204468	-0.0323486	-0.0527954
-0.0219727	-0.027771	-0.0497437
-0.0192261	-0.0271606	-0.0463867
-0.0167847	-0.0274658	-0.0442505
-0.0183105	-0.0253296	-0.0436401
-0.020752	-0.022583	-0.043335
-0.0204468	-0.0216675	-0.0421143
-0.0177002	-0.022583	-0.0402832
-0.0152588	-0.0241089	-0.0393677
-0.0137329	-0.0256348	-0.0393677
-0.0189209	-0.0241089	-0.0430298
-0.0292969	-0.0213623	-0.0506592
-0.03479	-0.0210571	-0.0558472
-0.0311279	-0.0219727	-0.0531006
-0.0262451	-0.0228882	-0.0491333
-0.0231934	-0.0231934	-0.0463867
-0.020752	-0.0238037	-0.0445557
-0.0183105	-0.0238037	-0.0421143
-0.0143433	-0.0238037	-0.038147
-0.00610352	-0.0250244	-0.0311279
0.00427246	-0.0283813	-0.0241089
0.012207	-0.0335693	-0.0213623
0.00854492	-0.0338745	-0.0253296
-0.00579834	-0.0283813	-0.0341797
-0.015564	-0.0244141	-0.039978
-0.0161743	-0.0250244	-0.0411987
-0.0161743	-0.0253296	-0.0415039
-0.0189209	-0.0250244	-0.0439453
-0.0231934	-0.0234985	-0.0466919
-0.0244141	-0.0219727	-0.0463867
-0.0198364	-0.0210571	-0.0408936
-0.0143433	-0.0195313	-0.0338745
-0.00915527	-0.0170898	-0.0262451
-0.000915527	-0.0183105	-0.0192261
0.00732422	-0.0216675	-0.0143433
0.0131226	-0.0241089	-0.0109863
0.017395	-0.0268555	-0.00946045
0.0192261	-0.0296021	-0.010376
0.0201416	-0.0338745	-0.0137329
0.0216675	-0.0396729	-0.0180054
0.0238037	-0.045166	-0.0213623
0.0271606	-0.0500488	-0.0228882
0.0311279	-0.0543213	-0.0231934
0.0357056	-0.0579834	-0.0222778
0.0378418	-0.0585938	-0.020752
0.0372314	-0.055542	-0.0183105
0.03479	-0.0497437	-0.0149536
0.0326538	-0.0439453	-0.0112915
0.0320435	-0.039978	-0.00793457
0.0366211	-0.0402832	-0.00366211
0.0439453	-0.0421143	0.00183105
0.0506592	-0.0445557	0.00610352
0.0558472	-0.0473022	0.00854492
0.0613403	-0.0500488	0.0112915
0.0680542	-0.0552368	0.0128174
0.078125	-0.0634766	0.0146484
0.0891113	-0.071106	0.0180054
0.0958252	-0.0738525	0.0219727
0.100708	-0.0738525	0.0268555
0.107727	-0.0738525	0.0338745
0.114441	-0.0726318	0.0418091
0.119629	-0.0701904	0.0494385
0.123901	-0.0668335	0.0570679
0.128174	-0.0628662	0.0653076
0.132141	-0.0595093	0.0726318
0.135498	-0.0570679	0.0784302
0.137329	-0.0549316	0.0823975
0.137939	-0.0521851	0.0857544
0.137939	-0.0506592	0.0872803
0.136719	-0.0497437	0.0869751
0.133057	-0.0476074	0.0854492
0.131531	-0.0457764	0.0857544
0.132446	-0.0445557	0.0878906
0.134277	-0.045166	0.0891113
0.133362	-0.045166	0.0881958
0.130615	-0.0396729	0.0909424
0.126648	-0.0326538	0.0939941
0.124207	-0.027771	0.0964355
0.123901	-0.0238037	0.100098
0.12146	-0.0170898	0.10437
0.117188	-0.00823975	0.108948
0.115967	-0.00183105	0.114136
0.117188	0.000915527	0.118103
0.117798	0.0012207	0.119019
0.117188	0.00152588	0.118713
0.119934	-0.0012207	0.118713
0.127258	-0.00946045	0.117798
0.130005	-0.0149536	0.115051
0.12085	-0.0119019	0.108948
0.104065	-0.00335693	0.100708
0.0878906	0.00305176	0.0909424
0.0772095	0.00335693	0.0805664
0.0674438	0.00274658	0.0701904
0.0534058	0.00671387	0.0601196
0.0366211	0.0140381	0.0506592
0.0198364	0.0213623	0.0411987
0.00610352	0.0259399	0.0320435
-0.00152588	0.0247192	0.0231934
-0.00335693	0.0183105	0.0149536
-0.00335693	0.010376	0.00701904
-0.00427246	0.00396729	-0.000305176
-0.00549316	-0.000610352	-0.00610352
-0.00640869	-0.00427246	-0.0106812
-0.00732422	-0.00823975	-0.015564
-0.00915527	-0.0115967	-0.020752
-0.0128174	-0.0128174	-0.0256348
-0.0198364	-0.0112915	-0.0311279
-0.027771	-0.00793457	-0.0357056
-0.032959	-0.00579834	-0.0387573
-0.0366211	-0.00549316	-0.0421143
-0.0421143	-0.00549316	-0.0476074
-0.0497437	-0.00244141	-0.0521851
-0.0561523	0.000915527	-0.0552368
-0.0613403	0.00213623	-0.0592041
-0.0671387	0.00213623	-0.0650024
-0.0701904	0.000915527	-0.0692749
-0.0692749	-0.000915527	-0.0701904
-0.0668335	-0.00366211	-0.0704956
-0.0653076	-0.00640869	-0.0717163
-0.0662231	-0.00854492	-0.0747681
-0.0689697	-0.00701904	-0.0759888
-0.0765991	0.00274658	-0.0738525
-0.0857544	0.0140381	-0.0717163
-0.0894165	0.0186157	-0.0708008
-0.0875854	0.0180054	-0.0695801
-0.0854492	0.0183105	-0.0671387
-0.0863647	0.0201416	-0.0662231
-0.0875854	0.0213623	-0.0662231
-0.0811768	0.0180054	-0.0631714
-0.0692749	0.00915527	-0.0601196
-0.0582886	-0.00183105	-0.0601196
-0.0509644	-0.0119019	-0.0628662
-0.0454712	-0.0198364	-0.0653076
-0.0402832	-0.0265503	-0.0668335
-0.0357056	-0.0320435	-0.067749
-0.0335693	-0.0332642	-0.0668335
-0.0369263	-0.0289917	-0.065918
-0.0427246	-0.022583	-0.0653076
-0.0473022	-0.0170898	-0.0643921
-0.0500488	-0.0131226	-0.0631714
-0.0515747	-0.0088501	-0.0604248
-0.0537109	-0.00366211	-0.057373
-0.0552368	0.000915527	-0.0543213
-0.0558472	0.00305176	-0.0527954
-0.0564575	0.00366211	-0.0527954
-0.0576782	0.00305176	-0.0546265
-0.0604248	0.00183105	-0.0585938
-0.0640869	0.00152588	-0.062561
-0.0674438	0.00366211	-0.0637817
-0.0686646	0.00579834	-0.0628662
-0.0683594	0.00640869	-0.0619507
-0.0674438	0.00549316	-0.0619507
-0.0665283	0.00427246	-0.0622559
-0.065918	0.00457764	-0.0613403
-0.0653076	0.00732422	-0.0579834
-0.0637817	0.0100708	-0.0537109
-0.0619507	0.0115967	-0.050354
-0.0601196	0.0106812	-0.0494385
-0.0564575	0.00610352	-0.050354
-0.0521851	-0.000305176	-0.0524902
-0.0500488	-0.00488281	-0.0549316
-0.0515747	-0.00335693	-0.0549316
-0.0521851	-0.000610352	-0.0527954
-0.0518799	-0.000305176	-0.0521851
-0.0476074	-0.00366211	-0.0512695
-0.0393677	-0.00823975	-0.0476074
-0.0390625	-0.00549316	-0.0445557
-0.0506592	0.00579834	-0.0448608
-0.0622559	0.0167847	-0.0454712
-0.0637817	0.0198364	-0.0439453
-0.0576782	0.0170898	-0.0405884
-0.0512695	0.0131226	-0.038147
-0.0515747	0.0137329	-0.0378418
-0.0561523	0.0170898	-0.0390625
-0.0543213	0.0143433	-0.039978
-0.0454712	0.00488281	-0.0405884
-0.0357056	-0.00549316	-0.0411987
-0.0250244	-0.0143433	-0.0393677
-0.0134277	-0.0213623	-0.03479
-0.00640869	-0.0262451	-0.0326538
-0.00396729	-0.0280762	-0.0320435
-0.00305176	-0.0274658	-0.0305176
-0.00427246	-0.0253296	-0.0296021
-0.00671387	-0.0216675	-0.0283813
-0.00946045	-0.0180054	-0.0274658
-0.012207	-0.0140381	-0.0262451
-0.0164795	-0.0100708	-0.0265503
-0.0219727	-0.00640869	-0.0283813
-0.0274658	-0.00366211	-0.0311279
-0.0302124	-0.00244141	-0.0326538
-0.0296021	-0.00274658	-0.0323486
-0.0283813	-0.00457764	-0.032959
-0.0259399	-0.00762939	-0.0335693
-0.0241089	-0.00976563	-0.0338745
-0.0228882	-0.0112915	-0.0341797
-0.0231934	-0.0112915	-0.0344849
-0.0238037	-0.00976563	-0.0335693
-0.0247192	-0.00701904	-0.0317383
-0.0274658	-0.00305176	-0.0305176
-0.0314331	0.000610352	-0.0308228
-0.0360107	0.00366211	-0.0323486
-0.0439453	0.00762939	-0.0363159
-0.0527954	0.0125122	-0.0402832
-0.0570679	0.0152588	-0.0418091
-0.0579834	0.0164795	-0.0415039
-0.0582886	0.0183105	-0.039978
-0.0561523	0.017395	-0.0387573
-0.0534058	0.015564	-0.0378418
-0.0506592	0.0137329	-0.0369263
-0.045166	0.00946045	-0.0357056
-0.0372314	0.00183105	-0.0354004
-0.0323486	-0.00457764	-0.0369263
-0.0320435	-0.00701904	-0.0390625
-0.032959	-0.00915527	-0.0421143
-0.0305176	-0.0134277	-0.0439453
-0.027771	-0.0183105	-0.0460815
-0.0274658	-0.0204468	-0.0479126
-0.0289917	-0.0201416	-0.0491333
-0.0320435	-0.017395	-0.0494385
-0.0354004	-0.0137329	-0.0491333
-0.0357056	-0.0109863	-0.0466919
-0.0344849	-0.0088501	-0.043335
-0.0326538	-0.00701904	-0.0396729
-0.0317383	-0.00518799	-0.0369263
-0.0323486	-0.00335693	-0.0357056
-0.0344849	-0.0012207	-0.0357056
-0.0360107	-0.000305176	-0.0363159
-0.0375366	-0.000610352	-0.038147
-0.0402832	-0.00152588	-0.0418091
-0.0430298	-0.00244141	-0.0454712
-0.0430298	-0.00335693	-0.0463867
-0.0405884	-0.00396729	-0.0445557
-0.038147	-0.00305176	-0.0411987
-0.0378418	-0.000915527	-0.0387573
-0.0390625	0.00152588	-0.0375366
-0.0393677	0.00335693	-0.0360107
-0.0390625	0.00488281	-0.0341797
-0.0378418	0.00610352	-0.0317383
-0.0366211	0.00732422	-0.0292969
-0.038147	0.00854492	-0.0296021
-0.0402832	0.00976563	-0.0305176
-0.045166	0.0109863	-0.0341797
-0.0527954	0.012207	-0.0405884
-0.0570679	0.0128174	-0.0442505
-0.0546265	0.0115967	-0.0430298
-0.0500488	0.00915527	-0.0408936
-0.0479126	0.00793457	-0.039978
-0.0469971	0.00793457	-0.0390625
-0.0457764	0.0088501	-0.0369263
-0.045166	0.0125122	-0.0326538
-0.0445557	0.0158691	-0.0286865
-0.0418091	0.0167847	-0.0250244
-0.038147	0.015564	-0.022583
-0.0378418	0.015564	-0.0222778
-0.0408936	0.0158691	-0.0250244
-0.0463867	0.0167847	-0.0296021
-0.057373	0.0234985	-0.0338745
-0.0762939	0.0363159	-0.039978
-0.0912476	0.045166	-0.0460815
-0.0909424	0.0411987	-0.0497437
-0.0799561	0.0299072	-0.0500488
-0.0683594	0.0201416	-0.0482178
-0.06073	0.015564	-0.045166
-0.0543213	0.0143433	-0.039978
-0.0448608	0.0112915	-0.0335693
-0.0296021	0.00335693	-0.0262451
-0.0109863	-0.00762939	-0.0186157
0.00518799	-0.017395	-0.012207
0.0149536	-0.0216675	-0.00671387
0.0177002	-0.020752	-0.00305176
0.0149536	-0.0161743	-0.0012207
0.00976563	-0.00976563	0
0.000610352	-0.00274658	-0.00213623
-0.0100708	0.00366211	-0.00640869
-0.0158691	0.00854492	-0.00732422
-0.0167847	0.0119019	-0.00488281
-0.0161743	0.0137329	-0.00244141
-0.0149536	0.0143433	-0.000610352
-0.0125122	0.0146484	0.00213623
-0.00854492	0.0152588	0.00671387
-0.00427246	0.0158691	0.0115967
-0.000610352	0.0164795	0.0158691
0.00183105	0.0170898	0.0189209
0.0012207	0.017395	0.0186157
-0.00335693	0.0177002	0.0143433
-0.00549316	0.0177002	0.012207
-0.00366211	0.0183105	0.0146484
-0.00244141	0.0189209	0.0164795
-0.00305176	0.0198364	0.0167847
-0.00335693	0.0195313	0.0161743
-0.00152588	0.0186157	0.0170898
0.00152588	0.0170898	0.0186157
0.00427246	0.0158691	0.0201416
0.00640869	0.0152588	0.0216675
0.00793457	0.0140381	0.0219727
0.00579834	0.0137329	0.0195313
0.00274658	0.0134277	0.0161743
0.0012207	0.00976563	0.0109863
-0.00305176	0.00671387	0.00366211
-0.0125122	0.00793457	-0.00457764
-0.0189209	0.00946045	-0.00946045
-0.020752	0.0088501	-0.0119019
-0.0189209	0.00549316	-0.0134277
-0.0158691	0.000305176	-0.015564
-0.015564	-0.00244141	-0.0180054
-0.0164795	-0.00457764	-0.0210571
-0.0177002	-0.00640869	-0.0241089
-0.020752	-0.00701904	-0.027771
-0.0250244	-0.00823975	-0.0332642
-0.0308228	-0.00976563	-0.0405884
-0.0384521	-0.00915527	-0.0476074
-0.0457764	-0.00762939	-0.0534058
-0.0521851	-0.00640869	-0.0585938
-0.0585938	-0.00427246	-0.0628662
-0.0631714	-0.00244141	-0.0656128
-0.0637817	-0.00274658	-0.0665283
-0.06073	-0.00518799	-0.065918
-0.0546265	-0.00823975	-0.0628662
-0.0469971	-0.0115967	-0.0585938
-0.0384521	-0.0146484	-0.0531006
-0.0314331	-0.0177002	-0.0491333
-0.0256348	-0.0198364	-0.0454712
-0.0210571	-0.0204468	-0.0415039
-0.0189209	-0.0186157	-0.0375366
-0.0186157	-0.0158691	-0.0344849
-0.0186157	-0.0137329	-0.0323486
-0.0201416	-0.012207	-0.0323486
-0.0222778	-0.00946045	-0.0317383
-0.022583	-0.00640869	-0.0289917
-0.0213623	-0.00396729	-0.0253296
-0.0222778	-0.00244141	-0.0247192
-0.0268555	-0.0012207	-0.0280762
-0.0302124	0.000610352	-0.0296021
-0.0311279	0.0012207	-0.0299072
-0.0317383	0.000915527	-0.0308228
-0.03479	0.00152588	-0.0332642
-0.0396729	0.00366211	-0.0360107
-0.0436401	0.00549316	-0.038147
-0.0476074	0.00549316	-0.0421143
-0.0521851	0.00335693	-0.0488281
-0.0531006	-0.000915527	-0.0540161
-0.0454712	-0.00701904	-0.0524902
-0.032959	-0.0125122	-0.0454712
-0.0192261	-0.0140381	-0.0332642
-0.00549316	-0.00976563	-0.0152588
0.0100708	0.00213623	0.012207
0.0338745	0.0192261	0.0531006
0.0686646	0.0402832	0.108948
0.112	0.0643921	0.176392
0.158691	0.0930786	0.25177
0.203247	0.125427	0.328674
0.244751	0.158386	0.403137
0.276489	0.193176	0.469666
0.28595	0.235901	0.521851
0.276184	0.276489	0.552673
0.250244	0.307007	0.557251
0.204773	0.329285	0.534058
0.140381	0.346985	0.487366
0.06073	0.358887	0.419617
-0.027771	0.361938	0.334167
-0.116882	0.353394	0.236511
-0.194092	0.332947	0.138855
-0.25238	0.301819	0.0494385
-0.288391	0.261841	-0.0265503
-0.303345	0.214539	-0.0888062
-0.297546	0.163269	-0.134277
-0.274353	0.111694	-0.162659
-0.240479	0.0631714	-0.177307
-0.201111	0.0216675	-0.179443
-0.158997	-0.010376	-0.169373
-0.119629	-0.0323486	-0.151978
-0.0878906	-0.0457764	-0.133667
-0.0646973	-0.0524902	-0.117188
-0.050354	-0.0524902	-0.102844
-0.0427246	-0.0469971	-0.0897217
-0.039978	-0.0369263	-0.0769043
-0.0408936	-0.0247192	-0.0656128
-0.0430298	-0.0137329	-0.0567627
-0.0460815	-0.00488281	-0.0509644
-0.050354	0.00274658	-0.0476074
-0.0524902	0.00946045	-0.0430298
-0.0512695	0.0152588	-0.0360107
-0.050354	0.0192261	-0.0311279
-0.0494385	0.0204468	-0.0289917
-0.0491333	0.0186157	-0.0305176
-0.0476074	0.0149536	-0.0326538
-0.0418091	0.0109863	-0.0308228
-0.0354004	0.00915527	-0.0262451
-0.0326538	0.00946045	-0.0231934
-0.0335693	0.0109863	-0.022583
-0.0378418	0.0146484	-0.0231934
-0.0430298	0.0189209	-0.0241089
-0.0479126	0.0231934	-0.0247192
-0.0558472	0.0323486	-0.0234985
-0.0643921	0.0418091	-0.022583
-0.067749	0.0445557	-0.0231934
-0.065918	0.0424194	-0.0234985
-0.0628662	0.0387573	-0.0241089
-0.0610352	0.0357056	-0.0253296
-0.0604248	0.0311279	-0.0292969
-0.0592041	0.0234985	-0.0357056
-0.0524902	0.0143433	-0.038147
-0.0418091	0.00488281	-0.0369263
-0.0296021	-0.00427246	-0.0338745
-0.0186157	-0.0112915	-0.0299072
-0.010376	-0.0149536	-0.0253296
-0.00732422	-0.0140381	-0.0213623
-0.00610352	-0.0112915	-0.017395
-0.00244141	-0.00946045	-0.0119019
0.00488281	-0.00915527	-0.00427246
0.0125122	-0.00976563	0.00274658
0.015564	-0.00823975	0.00732422
0.0125122	-0.00549316	0.00701904
0.00640869	-0.00274658	0.00366211
0.000305176	-0.00152588	-0.0012207
-0.00335693	-0.000915527	-0.00427246
-0.00396729	-0.000610352	-0.00457764
-0.00366211	-0.000305176	-0.00396729
-0.00427246	0	-0.00427246
-0.00457764	0.000305176	-0.00427246
-0.00396729	0.000610352	-0.00335693
-0.00335693	0.000915527	-0.00244141
-0.00396729	0.00183105	-0.00213623
-0.00427246	0.00274658	-0.00152588
-0.00488281	0.00396729	-0.000915527
-0.00976563	0.00671387	-0.00305176
-0.0146484	0.010376	-0.00427246
-0.0167847	0.0112915	-0.00549316
-0.0177002	0.0106812	-0.00701904
-0.0158691	0.00854492	-0.00732422
-0.0112915	0.00488281	-0.00640869
-0.00732422	0.00152588	-0.00579834
-0.00244141	-0.000610352	-0.00305176
0.00610352	-0.00366211	0.00244141
0.0161743	-0.00946045	0.00671387
0.0271606	-0.0180054	0.00915527
0.0378418	-0.0271606	0.0106812
0.0418091	-0.0302124	0.0115967
0.0384521	-0.0268555	0.0115967
0.0338745	-0.022583	0.0112915
0.0308228	-0.0210571	0.00976563
0.0265503	-0.020752	0.00579834
0.0201416	-0.0195313	0.000610352
0.0152588	-0.0189209	-0.00366211
0.0180054	-0.0192261	-0.0012207
0.0259399	-0.0201416	0.00579834
0.0332642	-0.0213623	0.0119019
0.0372314	-0.0210571	0.0161743
0.0418091	-0.0192261	0.022583
0.0512695	-0.0192261	0.0320435
0.0650024	-0.0222778	0.0427246
0.0796509	-0.0256348	0.0540161
0.0921631	-0.0280762	0.0640869
0.100708	-0.0292969	0.0714111
0.106812	-0.0311279	0.0756836
0.112	-0.0338745	0.078125
0.116272	-0.0375366	0.0787354
0.119629	-0.0415039	0.078125
0.12207	-0.0457764	0.0762939
0.125122	-0.0500488	0.0750732
0.128479	-0.0534058	0.0750732
0.129395	-0.0537109	0.0756836
0.126648	-0.0512695	0.0753784
0.12146	-0.0457764	0.0756836
0.116882	-0.0390625	0.0778198
0.118103	-0.032959	0.085144
0.121765	-0.0268555	0.0949097
0.123901	-0.0192261	0.104675
0.128479	-0.0152588	0.11322
0.136414	-0.015564	0.12085
0.140991	-0.0140381	0.126953
0.142212	-0.00976563	0.132446
0.144348	-0.00701904	0.137329
0.14801	-0.00793457	0.140076
0.148621	-0.00854492	0.140076
0.141602	-0.00488281	0.136719
0.131226	0.00183105	0.133057
0.118103	0.0109863	0.129089
0.107117	0.0180054	0.125122
0.0997925	0.0210571	0.12085
0.0927734	0.0228882	0.115662
0.0848389	0.0256348	0.110474
0.0765991	0.0280762	0.104675
0.0686646	0.0296021	0.0982666
0.0631714	0.0280762	0.0912476
0.0598145	0.0231934	0.0830078
0.0546265	0.0201416	0.0747681
0.0479126	0.0198364	0.067749
0.0421143	0.0183105	0.0604248
0.03479	0.0158691	0.0506592
0.0186157	0.020752	0.0393677
-0.00183105	0.0299072	0.0280762
-0.0164795	0.0360107	0.0195313
-0.0262451	0.0393677	0.0131226
-0.0314331	0.0408936	0.00946045
-0.03479	0.0405884	0.00579834
-0.0390625	0.0402832	0.0012207
-0.043335	0.0405884	-0.00274658
-0.0457764	0.0402832	-0.00549316
-0.0460815	0.0384521	-0.00762939
-0.0448608	0.0363159	-0.00854492
-0.0430298	0.0335693	-0.00946045
-0.043335	0.0314331	-0.0119019
-0.0454712	0.0299072	-0.015564
-0.0488281	0.0289917	-0.0198364
-0.0546265	0.0286865	-0.0259399
-0.0619507	0.0283813	-0.0335693
-0.0695801	0.0289917	-0.0405884
-0.0769043	0.0308228	-0.0460815
-0.0830078	0.0332642	-0.0497437
-0.0860596	0.0344849	-0.0515747
-0.0857544	0.0350952	-0.0506592
-0.085144	0.0360107	-0.0491333
-0.0863647	0.0384521	-0.0479126
-0.0900269	0.0415039	-0.0485229
-0.0924683	0.0442505	-0.0482178
-0.0906372	0.0445557	-0.0460815
-0.0848389	0.0427246	-0.0421143
-0.0805664	0.0421143	-0.0384521
-0.0787354	0.0415039	-0.0372314
-0.0772095	0.0393677	-0.0378418
-0.0778198	0.039978	-0.0378418
-0.0820923	0.0457764	-0.0363159
-0.0860596	0.0506592	-0.0354004
-0.0891113	0.0531006	-0.0360107
-0.0939941	0.0546265	-0.0393677
-0.0973511	0.055542	-0.0418091
-0.0973511	0.0552368	-0.0421143
-0.0964355	0.0534058	-0.0430298
-0.0964355	0.0509644	-0.0454712
-0.0942993	0.0473022	-0.0469971
-0.0909424	0.0436401	-0.0473022
-0.0878906	0.0396729	-0.0482178
-0.0814819	0.0344849	-0.0469971
-0.0717163	0.027771	-0.0439453
-0.0646973	0.0238037	-0.0408936
-0.062561	0.0247192	-0.0378418
-0.062561	0.0280762	-0.0344849
-0.0637817	0.0323486	-0.0314331
-0.0656128	0.0360107	-0.0296021
-0.0671387	0.0393677	-0.027771
-0.0701904	0.0430298	-0.0271606
-0.0732422	0.0457764	-0.0274658
-0.0765991	0.0485229	-0.0280762
-0.0796509	0.0512695	-0.0283813
-0.0814819	0.0524902	-0.0289917
-0.0827026	0.0521851	-0.0305176
-0.0808716	0.0518799	-0.0289917
-0.0762939	0.0518799	-0.0244141
-0.0717163	0.050354	-0.0213623
-0.0698853	0.0491333	-0.020752
-0.0701904	0.0497437	-0.0204468
-0.0698853	0.0500488	-0.0198364
-0.0689697	0.0488281	-0.0201416
-0.067749	0.0469971	-0.020752
-0.0668335	0.0448608	-0.0219727
-0.0671387	0.0430298	-0.0241089
-0.0698853	0.0418091	-0.0280762
-0.0735474	0.0402832	-0.0332642
-0.0753784	0.0369263	-0.0384521
-0.0747681	0.0323486	-0.0424194
-0.0732422	0.0274658	-0.0457764
-0.071106	0.0238037	-0.0473022
-0.0701904	0.0231934	-0.0469971
-0.0686646	0.0250244	-0.0436401
-0.0671387	0.0289917	-0.038147
-0.0668335	0.0320435	-0.03479
-0.067749	0.0341797	-0.0335693
-0.0640869	0.0341797	-0.0299072
-0.0579834	0.0332642	-0.0247192
-0.0531006	0.032959	-0.0201416
-0.0500488	0.0323486	-0.0177002
-0.0488281	0.0308228	-0.0180054
-0.0460815	0.0274658	-0.0186157
-0.0408936	0.0231934	-0.0177002
-0.0366211	0.0192261	-0.017395
-0.0363159	0.0170898	-0.0192261
-0.038147	0.0161743	-0.0219727
-0.0430298	0.0158691	-0.0271606
-0.0576782	0.0241089	-0.0335693
-0.0732422	0.0357056	-0.0375366
-0.0823975	0.0427246	-0.0396729
-0.0888062	0.0454712	-0.043335
-0.0930786	0.0457764	-0.0473022
-0.0930786	0.0460815	-0.0469971
-0.0897217	0.0460815	-0.0436401
-0.0839233	0.0439453	-0.039978
-0.0747681	0.0372314	-0.0375366
-0.0610352	0.0259399	-0.0350952
-0.0445557	0.0134277	-0.0311279
-0.0299072	0.00305176	-0.0268555
-0.0192261	-0.00549316	-0.0247192
-0.0140381	-0.0109863	-0.0250244
-0.0164795	-0.0112915	-0.027771
-0.022583	-0.0088501	-0.0314331
-0.0299072	-0.00518799	-0.0350952
-0.0372314	-0.000610352	-0.0378418
-0.0457764	0.00518799	-0.0405884
-0.0561523	0.0119019	-0.0442505
-0.0665283	0.0189209	-0.0476074
-0.0735474	0.0244141	-0.0491333
-0.0747681	0.0289917	-0.0457764
-0.0750732	0.0335693	-0.0415039
-0.0759888	0.0357056	-0.0402832
-0.0762939	0.03479	-0.0415039
-0.0762939	0.032959	-0.043335
-0.0775146	0.0311279	-0.0463867
-0.078125	0.0292969	-0.0488281
-0.0787354	0.0274658	-0.0512695
-0.0799561	0.0253296	-0.0546265
-0.0796509	0.0231934	-0.0564575
-0.0769043	0.0213623	-0.055542
-0.0741577	0.0195313	-0.0546265
-0.0750732	0.0195313	-0.055542
-0.0808716	0.0241089	-0.0567627
-0.0866699	0.0299072	-0.0567627
-0.0869751	0.032959	-0.0540161
-0.0839233	0.0332642	-0.0506592
-0.0839233	0.0350952	-0.0488281
-0.090332	0.038147	-0.0521851
-0.098877	0.0402832	-0.0585938
-0.101929	0.0396729	-0.0622559
-0.098877	0.0378418	-0.0610352
-0.0915527	0.0338745	-0.0576782
-0.0836182	0.0283813	-0.0552368
-0.078125	0.0238037	-0.0543213
-0.0741577	0.0204468	-0.0537109
-0.0692749	0.0183105	-0.0509644
-0.062561	0.0167847	-0.0457764
-0.0552368	0.0170898	-0.038147
-0.0500488	0.0198364	-0.0302124
-0.0500488	0.0256348	-0.0244141
-0.0524902	0.0311279	-0.0213623
-0.0531006	0.032959	-0.0201416
-0.0549316	0.03479	-0.0201416
-0.0610352	0.0402832	-0.020752
-0.0689697	0.0479126	-0.0210571
-0.0753784	0.0521851	-0.0231934
-0.0793457	0.0524902	-0.0268555
-0.0823975	0.0515747	-0.0308228
-0.0854492	0.0515747	-0.0338745
-0.0869751	0.050354	-0.0366211
-0.0848389	0.0463867	-0.0384521
-0.0820923	0.0421143	-0.039978
-0.0799561	0.0378418	-0.0421143
-0.0765991	0.0341797	-0.0424194
-0.0738525	0.0314331	-0.0424194
-0.0732422	0.0305176	-0.0427246
-0.0726318	0.0320435	-0.0405884
-0.0701904	0.0341797	-0.0360107
-0.067749	0.0357056	-0.0320435
-0.0680542	0.0375366	-0.0305176
-0.0698853	0.039978	-0.0299072
-0.0726318	0.0448608	-0.027771
-0.0756836	0.0506592	-0.0250244
-0.0772095	0.0549316	-0.0222778
-0.0756836	0.0561523	-0.0195313
-0.0750732	0.0558472	-0.0192261
-0.0741577	0.0543213	-0.0198364
-0.0726318	0.0521851	-0.0204468
-0.0732422	0.0491333	-0.0241089
-0.0744629	0.0460815	-0.0283813
-0.0765991	0.0442505	-0.0323486
-0.0802612	0.0436401	-0.0366211
-0.0827026	0.0424194	-0.0402832
-0.0845337	0.0408936	-0.0436401
-0.0872803	0.0421143	-0.045166
-0.0900269	0.045166	-0.0448608
-0.0891113	0.0479126	-0.0411987
-0.0875854	0.0518799	-0.0357056
-0.0872803	0.0561523	-0.0311279
-0.090332	0.0604248	-0.0299072
-0.0939941	0.065918	-0.0280762
-0.0909424	0.0683594	-0.022583
-0.0820923	0.0671387	-0.0149536
-0.0756836	0.0668335	-0.0088501
-0.0759888	0.0695801	-0.00640869
-0.0753784	0.0680542	-0.00732422
-0.071106	0.0643921	-0.00671387
-0.0640869	0.0613403	-0.00274658
-0.0582886	0.0585938	0.000305176
-0.0558472	0.057373	0.00152588
-0.055542	0.0564575	0.000915527
-0.0543213	0.0546265	0.000305176
-0.0515747	0.0527954	0.0012207
-0.0491333	0.0506592	0.00152588
-0.0488281	0.0494385	0.000610352
-0.0509644	0.0497437	-0.0012207
-0.0534058	0.0500488	-0.00335693
-0.0540161	0.0491333	-0.00488281
-0.0540161	0.0469971	-0.00701904
-0.0540161	0.0448608	-0.00915527
-0.0540161	0.0448608	-0.00915527
-0.0537109	0.045166	-0.00854492
-0.0537109	0.0454712	-0.00823975
-0.0552368	0.0463867	-0.0088501
-0.0585938	0.0497437	-0.0088501
-0.0622559	0.0546265	-0.00762939
-0.0613403	0.0567627	-0.00457764
-0.0592041	0.0570679	-0.00213623
-0.0585938	0.0570679	-0.00152588
-0.0564575	0.0549316	-0.00152588
-0.0527954	0.050354	-0.00244141
-0.0506592	0.0457764	-0.00488281
-0.050354	0.043335	-0.00701904
-0.0494385	0.0390625	-0.010376
-0.0494385	0.032959	-0.0164795
-0.0546265	0.0308228	-0.0238037
-0.0619507	0.0323486	-0.0296021
-0.0646973	0.032959	-0.0317383
-0.0656128	0.0320435	-0.0335693
-0.0671387	0.0311279	-0.0360107
-0.0671387	0.0280762	-0.0390625
-0.0656128	0.0231934	-0.0424194
-0.0680542	0.0219727	-0.0460815
-0.0708008	0.0228882	-0.0479126
-0.0683594	0.0195313	-0.0488281
-0.0653076	0.0140381	-0.0512695
-0.065918	0.00946045	-0.0564575
-0.0701904	0.00732422	-0.0628662
-0.0769043	0.00671387	-0.0701904
-0.083313	0.00762939	-0.0756836
-0.0891113	0.0106812	-0.0784302
-0.0942993	0.0143433	-0.0799561
-0.0976563	0.0170898	-0.0805664
-0.0985718	0.0177002	-0.0808716
-0.0979614	0.0170898	-0.0808716
-0.0976563	0.0180054	-0.0796509
-0.0982666	0.0195313	-0.0787354
-0.0952148	0.0198364	-0.0753784
-0.0909424	0.0192261	-0.0717163
-0.0878906	0.0195313	-0.0683594
-0.0872803	0.0201416	-0.0671387
-0.0869751	0.0198364	-0.0671387
-0.0857544	0.0180054	-0.067749
-0.0842285	0.0180054	-0.0662231
-0.0823975	0.0189209	-0.0634766
-0.0811768	0.0183105	-0.0628662
-0.0830078	0.0180054	-0.0650024
-0.090332	0.0222778	-0.0680542
-0.100708	0.0302124	-0.0704956
-0.108643	0.0357056	-0.072937
-0.113525	0.0372314	-0.0762939
-0.119324	0.0384521	-0.0808716
-0.127869	0.0421143	-0.0857544
-0.137024	0.0463867	-0.0906372
-0.142212	0.0463867	-0.0958252
-0.144043	0.0427246	-0.101318
-0.142212	0.0375366	-0.104675
-0.132751	0.0296021	-0.103149
-0.113831	0.0189209	-0.0949097
-0.0924683	0.0115967	-0.0808716
-0.0701904	0.0088501	-0.0613403
-0.0445557	0.0109863	-0.0335693
-0.0134277	0.0189209	0.00549316
0.0259399	0.0320435	0.0579834
0.0735474	0.0497437	0.123291
0.125122	0.0720215	0.197144
0.174561	0.0994873	0.274048
0.214844	0.134583	0.349426
0.240784	0.181274	0.422058
0.254517	0.233459	0.487976
0.253906	0.283508	0.537415
0.23407	0.329285	0.563354
0.192566	0.368958	0.561523
0.134277	0.401306	0.535583
0.0619507	0.424805	0.486755
-0.0192261	0.437012	0.417786
-0.101013	0.433655	0.332642
-0.177002	0.412292	0.235291
-0.240784	0.375366	0.134583
-0.287781	0.325928	0.038147
-0.314941	0.26825	-0.0466919
-0.322266	0.205994	-0.116272
-0.314026	0.143433	-0.170593
-0.297546	0.0869751	-0.210571
-0.273438	0.0393677	-0.23407
-0.245667	0.00183105	-0.243835
-0.21698	-0.0228882	-0.239868
-0.187073	-0.0366211	-0.223694
-0.158691	-0.0415039	-0.200195
-0.136719	-0.039978	-0.176697
-0.12085	-0.0335693	-0.154419
-0.112	-0.0216675	-0.133667
-0.107117	-0.00640869	-0.113525
-0.101929	0.00518799	-0.0967407
-0.0970459	0.0128174	-0.0842285
-0.093689	0.0167847	-0.0769043
-0.090332	0.0183105	-0.0720215
-0.0897217	0.0180054	-0.0717163
-0.0933838	0.0170898	-0.0762939
-0.0994873	0.0149536	-0.0845337
-0.102844	0.012207	-0.0906372
-0.10437	0.012207	-0.0921631
-0.107727	0.0149536	-0.0927734
-0.110779	0.0170898	-0.093689
-0.112915	0.0183105	-0.0946045
-0.115662	0.0213623	-0.0942993
-0.121155	0.0271606	-0.0939941
-0.129089	0.0357056	-0.0933838
-0.132751	0.0396729	-0.0930786
-0.133362	0.0402832	-0.0930786
-0.132751	0.0393677	-0.0933838
-0.128479	0.0354004	-0.0930786
-0.119934	0.0268555	-0.0930786
-0.107422	0.0149536	-0.0924683
-0.0942993	0.00457764	-0.0897217
-0.0814819	-0.00396729	-0.0854492
-0.0692749	-0.0119019	-0.0811768
-0.0585938	-0.0183105	-0.0769043
-0.0515747	-0.0222778	-0.0738525
-0.0482178	-0.0238037	-0.0720215
-0.0473022	-0.0228882	-0.0701904
-0.0491333	-0.0195313	-0.0686646
-0.0549316	-0.0137329	-0.0686646
-0.0646973	-0.00549316	-0.0701904
-0.0756836	0.00366211	-0.0720215
-0.0842285	0.0100708	-0.0741577
-0.0897217	0.0128174	-0.0769043
-0.0906372	0.0128174	-0.0778198
-0.088501	0.0119019	-0.0765991
-0.0842285	0.010376	-0.0738525
-0.0778198	0.00701904	-0.0708008
-0.071106	0.00274658	-0.0683594
-0.0656128	-0.000305176	-0.065918
-0.0592041	-0.00396729	-0.0631714
-0.0518799	-0.00732422	-0.0592041
-0.0512695	-0.00762939	-0.0588989
-0.0585938	-0.00518799	-0.0637817
-0.0646973	-0.00274658	-0.0674438
-0.0643921	0	-0.0643921
-0.0640869	0.00396729	-0.0601196
-0.0692749	0.00915527	-0.0601196
-0.0735474	0.0143433	-0.0592041
-0.0720215	0.0167847	-0.0552368
-0.065918	0.0161743	-0.0497437
-0.0579834	0.0134277	-0.0445557
-0.0497437	0.00946045	-0.0402832
-0.0408936	0.00366211	-0.0372314
-0.0344849	0.0012207	-0.0332642
-0.032959	0.00427246	-0.0286865
-0.03479	0.00762939	-0.0271606
-0.0378418	0.00793457	-0.0299072
-0.0418091	0.00610352	-0.0357056
-0.0439453	0.00366211	-0.0402832
-0.0442505	0.0012207	-0.0430298
-0.0436401	-0.000610352	-0.0442505
-0.0445557	-0.000915527	-0.0454712
-0.0457764	-0.000305176	-0.0460815
-0.045166	-0.000915527	-0.0460815
-0.0363159	-0.00854492	-0.0448608
-0.0241089	-0.0180054	-0.0421143
-0.0143433	-0.0247192	-0.0390625
-0.00762939	-0.0280762	-0.0357056
-0.00213623	-0.0289917	-0.0311279
0.00335693	-0.0292969	-0.0259399
0.0088501	-0.0302124	-0.0213623
0.0152588	-0.0317383	-0.0164795
0.0216675	-0.0335693	-0.0119019
0.0274658	-0.0363159	-0.0088501
0.03479	-0.0393677	-0.00457764
0.0411987	-0.0418091	-0.000610352
0.0460815	-0.0430298	0.00305176
0.0491333	-0.0424194	0.00671387
0.0509644	-0.0408936	0.0100708
0.0531006	-0.0390625	0.0140381
0.057373	-0.038147	0.0192261
0.062561	-0.0375366	0.0250244
0.0680542	-0.0363159	0.0317383
0.0726318	-0.0338745	0.0387573
0.0744629	-0.0292969	0.045166
0.072937	-0.0253296	0.0476074
0.071106	-0.022583	0.0485229
0.0701904	-0.020752	0.0494385
0.0726318	-0.0201416	0.0524902
0.0808716	-0.0204468	0.0604248
0.0875854	-0.0195313	0.0680542
0.0958252	-0.0198364	0.0759888
0.109253	-0.0234985	0.0857544
0.121155	-0.0259399	0.0952148
0.127869	-0.0238037	0.104065
0.130005	-0.0180054	0.112
0.126648	-0.00823975	0.118408
0.120544	0.000305176	0.12085
0.112915	0.00640869	0.119324
0.101929	0.0112915	0.11322
0.088501	0.0158691	0.10437
0.0741577	0.0198364	0.0939941
0.0595093	0.0228882	0.0823975
0.0476074	0.0231934	0.0708008
0.0408936	0.0201416	0.0610352
0.0405884	0.0137329	0.0543213
0.0448608	0.00671387	0.0515747
0.0491333	0.0012207	0.050354
0.0491333	-0.000610352	0.0485229
0.0448608	0.0012207	0.0460815
0.0366211	0.00610352	0.0427246
0.0250244	0.0134277	0.0384521
0.00762939	0.0244141	0.0320435
-0.0134277	0.0378418	0.0244141
-0.0323486	0.0476074	0.0152588
-0.0473022	0.0521851	0.00488281
-0.0588989	0.0534058	-0.00549316
-0.0668335	0.0521851	-0.0146484
-0.0698853	0.0485229	-0.0213623
-0.0689697	0.0421143	-0.0268555
-0.0656128	0.0338745	-0.0317383
-0.0616455	0.0247192	-0.0369263
-0.0576782	0.0164795	-0.0411987
-0.0549316	0.00915527	-0.0457764
-0.0540161	0.00366211	-0.050354
-0.0552368	0.000305176	-0.0549316
-0.0604248	0.000610352	-0.0598145
-0.0726318	0.00793457	-0.0646973
-0.0866699	0.0170898	-0.0695801
-0.0952148	0.0219727	-0.0732422
-0.0985718	0.0231934	-0.0753784
-0.098877	0.0234985	-0.0753784
-0.0985718	0.0259399	-0.0726318
-0.0997925	0.0299072	-0.0698853
-0.0991821	0.0311279	-0.0680542
-0.0964355	0.0289917	-0.0674438
-0.0915527	0.0244141	-0.0671387
-0.0866699	0.0201416	-0.0665283
-0.0827026	0.0158691	-0.0668335
-0.0796509	0.012207	-0.0674438
-0.0805664	0.0112915	-0.0692749
-0.0848389	0.0125122	-0.0723267
-0.0894165	0.0128174	-0.0765991
-0.0915527	0.0106812	-0.0808716
-0.0964355	0.0119019	-0.0845337
-0.102844	0.0149536	-0.0878906
-0.106201	0.0161743	-0.0900269
-0.106812	0.017395	-0.0894165
-0.106812	0.0183105	-0.088501
-0.102234	0.017395	-0.0848389
-0.0952148	0.0161743	-0.0790405
-0.0869751	0.0146484	-0.0723267
-0.0787354	0.0125122	-0.0662231
-0.0714111	0.010376	-0.0610352
-0.065918	0.00854492	-0.057373
-0.0622559	0.00671387	-0.055542
-0.0585938	0.00549316	-0.0531006
-0.0582886	0.00457764	-0.0537109
-0.0616455	0.00518799	-0.0564575
-0.0680542	0.00671387	-0.0613403
-0.0753784	0.00915527	-0.0662231
-0.0820923	0.0119019	-0.0701904
-0.0878906	0.0140381	-0.0738525
-0.0921631	0.0161743	-0.0759888
-0.0946045	0.0170898	-0.0775146
-0.0939941	0.017395	-0.0765991
-0.0912476	0.017395	-0.0738525
-0.0881958	0.0177002	-0.0704956
-0.0872803	0.0195313	-0.067749
-0.0881958	0.0216675	-0.0665283
-0.0900269	0.0241089	-0.065918
-0.0918579	0.0247192	-0.0671387
-0.0933838	0.0234985	-0.0698853
-0.0958252	0.0216675	-0.0741577
-0.0964355	0.0189209	-0.0775146
-0.0964355	0.0192261	-0.0772095
-0.0949097	0.0192261	-0.0756836
-0.0930786	0.0170898	-0.0759888
-0.0946045	0.017395	-0.0772095
-0.100403	0.0219727	-0.0784302
-0.10376	0.0259399	-0.0778198
-0.101929	0.0259399	-0.0759888
-0.098877	0.0262451	-0.0726318
-0.0976563	0.0289917	-0.0686646
-0.09552	0.0299072	-0.0656128
-0.0888062	0.0259399	-0.0628662
-0.0799561	0.0210571	-0.0588989
-0.071106	0.0170898	-0.0540161
-0.0613403	0.0112915	-0.0500488
-0.0506592	0.00366211	-0.0469971
-0.0418091	-0.00335693	-0.045166
-0.03479	-0.00976563	-0.0445557
-0.0308228	-0.0146484	-0.0454712
-0.0332642	-0.0146484	-0.0479126
-0.0418091	-0.0100708	-0.0518799
-0.0527954	-0.00549316	-0.0582886
-0.0643921	-0.00274658	-0.0671387
-0.0765991	-0.000915527	-0.0775146
-0.0863647	0.0012207	-0.085144
-0.0894165	0.00244141	-0.0869751
-0.0872803	0.00244141	-0.0848389
-0.0823975	0.00152588	-0.0808716
-0.0750732	-0.000305176	-0.0753784
-0.0674438	-0.00274658	-0.0701904
-0.0588989	-0.00549316	-0.0643921
-0.0500488	-0.0088501	-0.0588989
-0.0418091	-0.0119019	-0.0537109
-0.0357056	-0.0131226	-0.0488281
-0.0338745	-0.0128174	-0.0466919
-0.0369263	-0.012207	-0.0491333
-0.0442505	-0.0109863	-0.0552368
-0.0561523	-0.00823975	-0.0643921
-0.0704956	-0.00457764	-0.0750732
-0.085144	0.000915527	-0.0842285
-0.098877	0.00732422	-0.0915527
-0.108337	0.0112915	-0.0970459
-0.109863	0.0100708	-0.0997925
-0.106201	0.00732422	-0.098877
-0.103149	0.00701904	-0.0961304
-0.102234	0.00793457	-0.0942993
-0.0997925	0.00701904	-0.0927734
-0.0942993	0.00396729	-0.090332
-0.0863647	0	-0.0863647
-0.0753784	-0.00701904	-0.0823975
-0.065918	-0.0119019	-0.0778198
-0.0637817	-0.0112915	-0.0750732
-0.0665283	-0.00732422	-0.0738525
-0.0720215	-0.00183105	-0.0738525
-0.0747681	0	-0.0747681
-0.0738525	-0.00244141	-0.0762939
-0.0723267	-0.00549316	-0.0778198
-0.0720215	-0.00701904	-0.0790405
-0.0723267	-0.00732422	-0.0796509
-0.0720215	-0.00823975	-0.0802612
-0.0714111	-0.0106812	-0.0820923
-0.0686646	-0.0149536	-0.0836182
-0.065918	-0.0195313	-0.0854492
-0.0656128	-0.0210571	-0.0866699
-0.0671387	-0.0204468	-0.0875854
-0.0692749	-0.0189209	-0.0881958
-0.0720215	-0.0161743	-0.0881958
-0.0759888	-0.0125122	-0.088501
-0.0830078	-0.00854492	-0.0915527
-0.0915527	-0.00488281	-0.0964355
-0.0976563	-0.00152588	-0.0991821
-0.0994873	0.000915527	-0.0985718
-0.098877	0.00274658	-0.0961304
-0.0952148	0.00396729	-0.0912476
-0.0906372	0.00457764	-0.0860596
-0.0869751	0.00427246	-0.0827026
-0.0848389	0.00396729	-0.0808716
-0.0848389	0.00518799	-0.0796509
-0.0823975	0.00579834	-0.0765991
-0.0765991	0.00488281	-0.0717163
-0.0720215	0.00488281	-0.0671387
-0.0683594	0.00549316	-0.0628662
-0.0680542	0.00610352	-0.0619507
-0.0704956	0.00671387	-0.0637817
-0.072937	0.00671387	-0.0662231
-0.0756836	0.00823975	-0.0674438
-0.0839233	0.0161743	-0.067749
-0.0933838	0.0253296	-0.0680542
-0.0985718	0.0296021	-0.0689697
-0.100098	0.0280762	-0.0720215
-0.101624	0.0238037	-0.0778198
-0.108032	0.0216675	-0.0863647
-0.117493	0.0247192	-0.0927734
-0.122986	0.0289917	-0.0939941
-0.123291	0.0302124	-0.0930786
-0.119019	0.0265503	-0.0924683
-0.109253	0.0180054	-0.0912476
-0.0973511	0.0088501	-0.088501
-0.0869751	0.00244141	-0.0845337
-0.078125	-0.0012207	-0.0793457
-0.0704956	-0.00366211	-0.0741577
-0.0643921	-0.00640869	-0.0708008
-0.0598145	-0.00976563	-0.0695801
-0.0570679	-0.0143433	-0.0714111
-0.0582886	-0.0183105	-0.0765991
-0.062561	-0.0201416	-0.0827026
-0.0686646	-0.0201416	-0.0888062
-0.0756836	-0.0170898	-0.0927734
-0.0823975	-0.012207	-0.0946045
-0.0872803	-0.00762939	-0.0949097
-0.0906372	-0.00305176	-0.093689
-0.0924683	0.000915527	-0.0915527
-0.0924683	0.00396729	-0.088501
-0.0900269	0.00610352	-0.0839233
-0.0869751	0.00732422	-0.0796509
-0.085144	0.00823975	-0.0769043
-0.0823975	0.00793457	-0.0744629
-0.0784302	0.00732422	-0.071106
-0.0750732	0.00671387	-0.0683594
-0.0744629	0.00671387	-0.067749
-0.0772095	0.00793457	-0.0692749
-0.0802612	0.00854492	-0.0717163
-0.0802612	0.00701904	-0.0732422
-0.0775146	0.00396729	-0.0735474
-0.0720215	0.000915527	-0.071106
-0.0686646	0.0012207	-0.0674438
-0.0695801	0.00335693	-0.0662231
-0.0714111	0.00305176	-0.0683594
-0.0714111	0.00244141	-0.0689697
-0.0735474	0.00701904	-0.0665283
-0.0808716	0.017395	-0.0634766
-0.0878906	0.0247192	-0.0631714
-0.0906372	0.0268555	-0.0637817
-0.0927734	0.0274658	-0.0653076
-0.0952148	0.0283813	-0.0668335
-0.0970459	0.0274658	-0.0695801
-0.0964355	0.0247192	-0.0717163
-0.0942993	0.020752	-0.0735474
-0.088501	0.0137329	-0.0747681
-0.0778198	0.00244141	-0.0753784
-0.065918	-0.00946045	-0.0753784
-0.0570679	-0.0177002	-0.0747681
-0.0512695	-0.0222778	-0.0735474
-0.0482178	-0.0238037	-0.0720215
-0.0476074	-0.0228882	-0.0704956
-0.0488281	-0.0204468	-0.0692749
-0.0515747	-0.0177002	-0.0692749
-0.0527954	-0.0149536	-0.067749
-0.0534058	-0.0125122	-0.065918
-0.0552368	-0.00946045	-0.0646973
-0.0585938	-0.00427246	-0.0628662
-0.0604248	0	-0.0604248
-0.0610352	0.00244141	-0.0585938
-0.06073	0.00488281	-0.0558472
-0.0613403	0.00915527	-0.0521851
-0.0646973	0.0164795	-0.0482178
-0.0671387	0.020752	-0.0463867
-0.0646973	0.0189209	-0.0457764
-0.0582886	0.0140381	-0.0442505
-0.057373	0.0140381	-0.043335
-0.062561	0.0183105	-0.0442505
-0.0662231	0.0198364	-0.0463867
-0.0656128	0.0186157	-0.0469971
-0.0646973	0.0177002	-0.0469971
-0.065918	0.0192261	-0.0466919
-0.0683594	0.0222778	-0.0460815
-0.0704956	0.0247192	-0.0457764
-0.0692749	0.0250244	-0.0442505
-0.065918	0.0238037	-0.0421143
-0.0622559	0.020752	-0.0415039
-0.0567627	0.0167847	-0.039978
-0.0534058	0.0164795	-0.0369263
-0.0531006	0.0204468	-0.0326538
-0.0518799	0.0231934	-0.0286865
-0.0457764	0.0198364	-0.0259399
-0.0357056	0.0119019	-0.0238037
-0.0262451	0.00366211	-0.022583
-0.0195313	-0.00183105	-0.0213623
-0.0146484	-0.00457764	-0.0192261
-0.0109863	-0.00640869	-0.017395
-0.00854492	-0.0100708	-0.0186157
-0.00396729	-0.0177002	-0.0216675
0.00274658	-0.0286865	-0.0259399
0.00640869	-0.0372314	-0.0308228
0.00518799	-0.039978	-0.03479
-0.000305176	-0.0387573	-0.0390625
-0.00823975	-0.0357056	-0.0439453
-0.0183105	-0.0317383	-0.0500488
-0.0305176	-0.0265503	-0.0570679
-0.0424194	-0.0210571	-0.0634766
-0.0531006	-0.0158691	-0.0689697
-0.062561	-0.0115967	-0.0741577
-0.0695801	-0.00915527	-0.0787354
-0.0741577	-0.0088501	-0.0830078
-0.0775146	-0.00976563	-0.0872803
-0.0802612	-0.0112915	-0.0915527
-0.0802612	-0.0140381	-0.0942993
-0.0778198	-0.0170898	-0.0949097
-0.0744629	-0.0198364	-0.0942993
-0.0714111	-0.022583	-0.0939941
-0.0686646	-0.0250244	-0.093689
-0.0695801	-0.0247192	-0.0942993
-0.0738525	-0.022583	-0.0964355
-0.0772095	-0.0198364	-0.0970459
-0.0793457	-0.0164795	-0.0958252
-0.0857544	-0.0088501	-0.0946045
-0.0997925	0.00488281	-0.0949097
-0.113525	0.0183105	-0.0952148
-0.118408	0.0244141	-0.0939941
-0.117798	0.0259399	-0.0918579
-0.115967	0.0259399	-0.0900269
-0.115051	0.0247192	-0.090332
-0.114746	0.0238037	-0.0909424
-0.111084	0.020752	-0.090332
-0.103149	0.0131226	-0.0900269
-0.0946045	0.00335693	-0.0912476
-0.0836182	-0.00701904	-0.0906372
-0.0704956	-0.0180054	-0.088501
-0.0637817	-0.0256348	-0.0894165
-0.0671387	-0.0256348	-0.0927734
-0.0765991	-0.0201416	-0.0967407
-0.0854492	-0.0143433	-0.0997925
-0.090332	-0.0106812	-0.101013
-0.0921631	-0.0100708	-0.102234
-0.0939941	-0.010376	-0.10437
-0.0982666	-0.00946045	-0.107727
-0.0997925	-0.00823975	-0.108032
-0.0958252	-0.00823975	-0.104065
-0.088501	-0.0088501	-0.0973511
-0.0787354	-0.00823975	-0.0869751
-0.0576782	-0.00427246	-0.0619507
-0.0241089	0.00518799	-0.0189209
0.0164795	0.0216675	0.038147
0.0604248	0.045166	0.105591
0.107117	0.0741577	0.181274
0.153809	0.107727	0.261536
0.198059	0.145874	0.343933
0.23407	0.188904	0.422974
0.255432	0.236206	0.491638
0.261536	0.281067	0.542603
0.250244	0.319519	0.569763
0.217285	0.349731	0.567017
0.163269	0.371094	0.534363
0.0939941	0.38208	0.476074
0.0170898	0.379944	0.397034
-0.0616455	0.363464	0.301819
-0.136414	0.333557	0.197144
-0.202637	0.292664	0.0900269
-0.256348	0.24292	-0.0134277
-0.294189	0.186157	-0.108032
-0.310974	0.124512	-0.186462
-0.306396	0.0643921	-0.242004
-0.290833	0.0119019	-0.278931
-0.26886	-0.0305176	-0.299377
-0.240479	-0.0631714	-0.30365
-0.207214	-0.0875854	-0.2948
-0.174255	-0.101929	-0.276184
-0.150757	-0.103149	-0.253906
-0.139771	-0.0915527	-0.231323
-0.13092	-0.0762939	-0.207214
-0.120239	-0.0637817	-0.184021
-0.112305	-0.0537109	-0.166016
-0.108643	-0.0460815	-0.154724
-0.109253	-0.0387573	-0.14801
-0.114746	-0.0286865	-0.143433
-0.123291	-0.0180054	-0.141296
-0.128479	-0.0119019	-0.140381
-0.1297	-0.00976563	-0.139465
-0.128784	-0.00976563	-0.13855
-0.128479	-0.00915527	-0.137634
-0.131226	-0.00610352	-0.137329
-0.136108	-0.00274658	-0.138855
-0.141296	-0.000915527	-0.142212
-0.144653	0.000305176	-0.144348
-0.145874	-0.000305176	-0.146179
-0.145874	-0.00366211	-0.149536
-0.143127	-0.00854492	-0.151672
-0.13916	-0.0125122	-0.151672
-0.135803	-0.0143433	-0.150146
-0.132141	-0.0158691	-0.14801
-0.127563	-0.0177002	-0.145264
-0.124207	-0.0180054	-0.142212
-0.124817	-0.015564	-0.140381
-0.126953	-0.0119019	-0.138855
-0.128479	-0.00823975	-0.136719
-0.130615	-0.00427246	-0.134888
-0.133972	-0.000915527	-0.134888
-0.137634	0.000610352	-0.137024
-0.140991	0.000915527	-0.140076
-0.143433	0	-0.143433
-0.143738	-0.00213623	-0.145874
-0.142822	-0.00305176	-0.145874
-0.139465	-0.00366211	-0.143127
-0.133667	-0.00488281	-0.13855
-0.126038	-0.00732422	-0.133362
-0.117493	-0.0119019	-0.129395
-0.110474	-0.015564	-0.126038
-0.108948	-0.0137329	-0.122681
-0.111694	-0.00671387	-0.118408
-0.115662	0.000305176	-0.115356
-0.12085	0.00579834	-0.115051
-0.127258	0.00854492	-0.118713
-0.132141	0.00854492	-0.123596
-0.132446	0.00549316	-0.126953
-0.132141	0.00213623	-0.130005
-0.137939	0.00366211	-0.134277
-0.143127	0.00762939	-0.135498
-0.144043	0.0100708	-0.133972
-0.143433	0.0106812	-0.132751
-0.140076	0.0088501	-0.131226
-0.137024	0.00732422	-0.1297
-0.133362	0.00732422	-0.126038
-0.128784	0.00701904	-0.121765
-0.122986	0.00579834	-0.117188
-0.116272	0.00305176	-0.11322
-0.108643	-0.00213623	-0.110779
-0.101318	-0.0088501	-0.110168
-0.0939941	-0.0167847	-0.110779
-0.085144	-0.0262451	-0.111389
-0.0741577	-0.0372314	-0.111389
-0.0643921	-0.0473022	-0.111694
-0.0613403	-0.0509644	-0.112305
-0.0650024	-0.0479126	-0.112915
-0.0708008	-0.0424194	-0.11322
-0.0750732	-0.0372314	-0.112305
-0.0796509	-0.0326538	-0.112305
-0.0860596	-0.0274658	-0.113525
-0.0933838	-0.0222778	-0.115662
-0.0964355	-0.0167847	-0.11322
-0.0952148	-0.0119019	-0.107117
-0.0930786	-0.00823975	-0.101318
-0.0906372	-0.00579834	-0.0964355
-0.0857544	-0.00579834	-0.0915527
-0.0753784	-0.00854492	-0.0839233
-0.0650024	-0.00976563	-0.0747681
-0.0570679	-0.00854492	-0.0656128
-0.0488281	-0.00946045	-0.0582886
-0.0418091	-0.012207	-0.0540161
-0.0396729	-0.0131226	-0.0527954
-0.0418091	-0.0112915	-0.0531006
-0.0408936	-0.010376	-0.0512695
-0.0338745	-0.0125122	-0.0463867
-0.0234985	-0.0152588	-0.0387573
-0.0125122	-0.0189209	-0.0314331
-0.00366211	-0.0201416	-0.0238037
0.00701904	-0.0219727	-0.0149536
0.0195313	-0.0231934	-0.00366211
0.027771	-0.0201416	0.00762939
0.0344849	-0.0167847	0.0177002
0.0430298	-0.0170898	0.0259399
0.0515747	-0.0192261	0.0323486
0.0564575	-0.0201416	0.0363159
0.0567627	-0.0186157	0.038147
0.0537109	-0.0167847	0.0369263
0.0494385	-0.0152588	0.0341797
0.0460815	-0.0149536	0.0311279
0.0448608	-0.0143433	0.0305176
0.0439453	-0.0119019	0.0320435
0.0454712	-0.0106812	0.03479
0.0488281	-0.0109863	0.0378418
0.0521851	-0.00976563	0.0424194
0.0531006	-0.00549316	0.0476074
0.0531006	-0.00152588	0.0515747
0.0527954	0.000915527	0.0537109
0.0518799	0.00274658	0.0546265
0.0500488	0.00396729	0.0540161
0.0482178	0.00396729	0.0521851
0.0454712	0.00305176	0.0485229
0.039978	0.00213623	0.0421143
0.0320435	0.00244141	0.0344849
0.0228882	0.00366211	0.0265503
0.0128174	0.00457764	0.017395
0.00305176	0.00549316	0.00854492
-0.00579834	0.00518799	-0.000610352
-0.0180054	0.00610352	-0.0119019
-0.0317383	0.00762939	-0.0241089
-0.0427246	0.00793457	-0.03479
-0.0473022	0.00671387	-0.0405884
-0.0485229	0.00396729	-0.0445557
-0.0500488	0.000915527	-0.0491333
-0.0549316	0.000915527	-0.0540161
-0.0650024	0.00518799	-0.0598145
-0.0744629	0.00976563	-0.0646973
-0.0811768	0.0115967	-0.0695801
-0.0872803	0.0131226	-0.0741577
-0.0906372	0.0137329	-0.0769043
-0.0927734	0.0140381	-0.0787354
-0.0979614	0.0152588	-0.0827026
-0.101318	0.0137329	-0.0875854
-0.102539	0.010376	-0.0921631
-0.110168	0.015564	-0.0946045
-0.121155	0.0253296	-0.0958252
-0.122681	0.0259399	-0.0967407
-0.115967	0.0183105	-0.0976563
-0.109558	0.0115967	-0.0979614
-0.107727	0.00823975	-0.0994873
-0.109253	0.00701904	-0.102234
-0.109863	0.00396729	-0.105896
-0.108643	-0.000915527	-0.109558
-0.105591	-0.00610352	-0.111694
-0.0994873	-0.0112915	-0.110779
-0.0930786	-0.0158691	-0.108948
-0.0912476	-0.0177002	-0.108948
-0.0933838	-0.0167847	-0.110168
-0.0942993	-0.0146484	-0.108948
-0.0933838	-0.0112915	-0.104675
-0.09552	-0.00518799	-0.100708
-0.100403	0.00183105	-0.0985718
-0.10376	0.00610352	-0.0976563
-0.104675	0.00610352	-0.0985718
-0.103149	0.00427246	-0.098877
-0.100403	0.00183105	-0.0985718
-0.0982666	-0.000610352	-0.098877
-0.0976563	-0.00274658	-0.100403
-0.0961304	-0.00518799	-0.101318
-0.0946045	-0.00701904	-0.101624
-0.0942993	-0.00793457	-0.102234
-0.0939941	-0.00793457	-0.101929
-0.0927734	-0.00823975	-0.101013
-0.0918579	-0.00793457	-0.0997925
-0.0933838	-0.00671387	-0.100098
-0.0979614	-0.00366211	-0.101624
-0.103455	-0.000610352	-0.104065
-0.107422	0.000610352	-0.106812
-0.110779	0.0012207	-0.109558
-0.116577	0.00274658	-0.113831
-0.12146	0.00457764	-0.116882
-0.122681	0.00640869	-0.116272
-0.123596	0.00976563	-0.113831
-0.124817	0.0134277	-0.111389
-0.122681	0.0140381	-0.108643
-0.117188	0.0137329	-0.103455
-0.108032	0.0112915	-0.0967407
-0.098877	0.00793457	-0.0909424
-0.0909424	0.00457764	-0.0863647
-0.083313	0.00213623	-0.0811768
-0.0765991	0	-0.0765991
-0.0683594	-0.00488281	-0.0732422
-0.06073	-0.0106812	-0.0714111
-0.0579834	-0.0149536	-0.072937
-0.0576782	-0.0167847	-0.0744629
-0.0588989	-0.0149536	-0.0738525
-0.0628662	-0.010376	-0.0732422
-0.0686646	-0.00549316	-0.0741577
-0.0750732	-0.000305176	-0.0753784
-0.0784302	0.00335693	-0.0750732
-0.0793457	0.00488281	-0.0744629
-0.0796509	0.00518799	-0.0744629
-0.0787354	0.00366211	-0.0750732
-0.0750732	0.000915527	-0.0741577
-0.0701904	-0.00396729	-0.0741577
-0.0650024	-0.0100708	-0.0750732
-0.0598145	-0.0167847	-0.0765991
-0.0540161	-0.0231934	-0.0772095
-0.0482178	-0.0286865	-0.0769043
-0.0445557	-0.0320435	-0.0765991
-0.0439453	-0.0341797	-0.078125
-0.0457764	-0.032959	-0.0787354
-0.0500488	-0.027771	-0.0778198
-0.0549316	-0.0213623	-0.0762939
-0.0595093	-0.0158691	-0.0753784
-0.0619507	-0.0125122	-0.0744629
-0.0637817	-0.010376	-0.0741577
-0.0650024	-0.00823975	-0.0732422
-0.0646973	-0.00732422	-0.0720215
-0.0643921	-0.00671387	-0.071106
-0.06073	-0.00701904	-0.067749
-0.057373	-0.00823975	-0.0656128
-0.0585938	-0.00854492	-0.0671387
-0.0595093	-0.00976563	-0.0692749
-0.0582886	-0.0125122	-0.0708008
-0.057373	-0.0146484	-0.0720215
-0.0595093	-0.0158691	-0.0753784
-0.0656128	-0.0149536	-0.0805664
-0.0689697	-0.0143433	-0.083313
-0.0680542	-0.0149536	-0.0830078
-0.0695801	-0.0128174	-0.0823975
-0.0732422	-0.00854492	-0.0817871
-0.0769043	-0.00457764	-0.0814819
-0.0790405	-0.0012207	-0.0802612
-0.0787354	-0.00152588	-0.0802612
-0.0741577	-0.00518799	-0.0793457
-0.0668335	-0.00976563	-0.0765991
-0.0595093	-0.0146484	-0.0741577
-0.0521851	-0.0201416	-0.0723267
-0.0442505	-0.0262451	-0.0704956
-0.0363159	-0.0323486	-0.0686646
-0.0305176	-0.0378418	-0.0683594
-0.0265503	-0.0415039	-0.0680542
-0.0250244	-0.0442505	-0.0692749
-0.0244141	-0.0460815	-0.0704956
-0.022583	-0.0473022	-0.0698853
-0.0228882	-0.0466919	-0.0695801
-0.0286865	-0.043335	-0.0720215
-0.038147	-0.0390625	-0.0772095
-0.0460815	-0.0357056	-0.0817871
-0.0497437	-0.0341797	-0.0839233
-0.0515747	-0.0338745	-0.0854492
-0.0543213	-0.0335693	-0.0878906
-0.0582886	-0.0317383	-0.0900269
-0.0613403	-0.0283813	-0.0897217
-0.0640869	-0.0234985	-0.0875854
-0.0671387	-0.0183105	-0.0854492
-0.0689697	-0.0152588	-0.0842285
-0.0683594	-0.0134277	-0.0817871
-0.0665283	-0.0115967	-0.078125
-0.0646973	-0.00854492	-0.0732422
-0.0634766	-0.00671387	-0.0701904
-0.0616455	-0.00701904	-0.0686646
-0.0579834	-0.00915527	-0.0671387
-0.0537109	-0.0112915	-0.0650024
-0.0500488	-0.0128174	-0.0628662
-0.0469971	-0.0137329	-0.06073
-0.0436401	-0.0149536	-0.0585938
-0.0405884	-0.0167847	-0.057373
-0.038147	-0.0195313	-0.0576782
-0.0393677	-0.0192261	-0.0585938
-0.045166	-0.0158691	-0.0610352
-0.0506592	-0.0131226	-0.0637817
-0.0567627	-0.010376	-0.0671387
-0.0662231	-0.00549316	-0.0717163
-0.0765991	0	-0.0765991
-0.083313	0.00518799	-0.078125
-0.0842285	0.00915527	-0.0750732
-0.0854492	0.0115967	-0.0738525
-0.0878906	0.0131226	-0.0747681
-0.0860596	0.012207	-0.0738525
-0.0772095	0.00854492	-0.0686646
-0.062561	0.000305176	-0.0622559
-0.045166	-0.0109863	-0.0561523
-0.0317383	-0.0198364	-0.0515747
-0.0241089	-0.0244141	-0.0485229
-0.0192261	-0.0259399	-0.045166
-0.0186157	-0.0256348	-0.0442505
-0.0204468	-0.0253296	-0.0457764
-0.0219727	-0.0250244	-0.0469971
-0.0247192	-0.0219727	-0.0466919
-0.0302124	-0.0170898	-0.0473022
-0.0360107	-0.0112915	-0.0473022
-0.0402832	-0.00640869	-0.0466919
-0.0442505	-0.00183105	-0.0460815
-0.050354	0.00396729	-0.0463867
-0.0552368	0.00793457	-0.0473022
-0.0567627	0.00732422	-0.0494385
-0.0549316	0.00427246	-0.0506592
-0.0531006	0.0012207	-0.0518799
-0.0527954	-0.0012207	-0.0540161
-0.0543213	-0.00335693	-0.0576782
-0.0546265	-0.00579834	-0.0604248
-0.0512695	-0.00854492	-0.0598145
-0.0469971	-0.0112915	-0.0582886
-0.0436401	-0.0143433	-0.0579834
-0.0396729	-0.0180054	-0.0576782
-0.0363159	-0.0210571	-0.057373
-0.0341797	-0.022583	-0.0567627
-0.0326538	-0.0234985	-0.0561523
-0.0299072	-0.0241089	-0.0540161
-0.0283813	-0.0253296	-0.0537109
-0.0296021	-0.0241089	-0.0537109
-0.0341797	-0.0204468	-0.0546265
-0.0384521	-0.0170898	-0.055542
-0.0387573	-0.017395	-0.0561523
-0.0375366	-0.0183105	-0.0558472
-0.0393677	-0.0149536	-0.0543213
-0.0430298	-0.0088501	-0.0518799
-0.045166	-0.00549316	-0.0506592
-0.0457764	-0.00518799	-0.0509644
-0.0485229	-0.00274658	-0.0512695
-0.0558472	0.00366211	-0.0521851
-0.0631714	0.00762939	-0.055542
-0.0662231	0.00549316	-0.06073
-0.0689697	0.00579834	-0.0631714
-0.0723267	0.0088501	-0.0634766
-0.0692749	0.00549316	-0.0637817
-0.0598145	-0.00274658	-0.062561
-0.0485229	-0.0100708	-0.0585938
-0.0390625	-0.0146484	-0.0537109
-0.0308228	-0.0183105	-0.0491333
-0.0219727	-0.0228882	-0.0448608
-0.012207	-0.0286865	-0.0408936
-0.00305176	-0.0335693	-0.0366211
0.00213623	-0.0366211	-0.0344849
0.00244141	-0.0372314	-0.03479
-0.000610352	-0.0354004	-0.0360107
-0.00549316	-0.0308228	-0.0363159
-0.0109863	-0.0253296	-0.0363159
-0.0152588	-0.0210571	-0.0363159
-0.0177002	-0.0180054	-0.0357056
-0.0192261	-0.0149536	-0.0341797
-0.0186157	-0.0125122	-0.0311279
-0.0152588	-0.0106812	-0.0259399
-0.010376	-0.0106812	-0.0210571
-0.00579834	-0.012207	-0.0180054
-0.00274658	-0.0137329	-0.0164795
-0.00152588	-0.0134277	-0.0149536
-0.00183105	-0.0119019	-0.0137329
-0.00518799	-0.0088501	-0.0140381
-0.00732422	-0.00640869	-0.0137329
-0.00732422	-0.00518799	-0.0125122
-0.00610352	-0.00518799	-0.0112915
-0.00427246	-0.00518799	-0.00946045
-0.00305176	-0.00457764	-0.00762939
-0.000915527	-0.00488281	-0.00579834
0.00152588	-0.00732422	-0.00579834
0.00183105	-0.0109863	-0.00915527
0.000610352	-0.0143433	-0.0137329
0.000915527	-0.0177002	-0.0167847
0.00366211	-0.0213623	-0.0177002
0.00610352	-0.022583	-0.0164795
0.00701904	-0.0244141	-0.017395
0.0088501	-0.0271606	-0.0183105
0.00762939	-0.0253296	-0.0177002
0.00305176	-0.017395	-0.0143433
0.000915527	-0.0100708	-0.00915527
0.00213623	-0.00549316	-0.00335693
0.00579834	-0.00488281	0.000915527
0.0109863	-0.00762939	0.00335693
0.0140381	-0.0109863	0.00305176
0.0149536	-0.015564	-0.000610352
0.0180054	-0.0216675	-0.00366211
0.0201416	-0.0244141	-0.00427246
0.0204468	-0.0256348	-0.00518799
0.0228882	-0.0317383	-0.0088501
0.0271606	-0.0408936	-0.0137329
0.0292969	-0.0479126	-0.0186157
0.0250244	-0.0488281	-0.0238037
0.0161743	-0.0445557	-0.0283813
0.00610352	-0.039978	-0.0338745
-0.00244141	-0.0393677	-0.0418091
-0.0100708	-0.0402832	-0.050354
-0.0180054	-0.0405884	-0.0585938
-0.0244141	-0.0402832	-0.0646973
-0.0286865	-0.0396729	-0.0683594
-0.0305176	-0.039978	-0.0704956
-0.0286865	-0.0411987	-0.0698853
-0.0247192	-0.0424194	-0.0671387
-0.0216675	-0.0430298	-0.0646973
-0.0210571	-0.0427246	-0.0637817
-0.0210571	-0.0418091	-0.0628662
-0.020752	-0.039978	-0.06073
-0.0219727	-0.0378418	-0.0598145
-0.0238037	-0.0357056	-0.0595093
-0.0259399	-0.0332642	-0.0592041
-0.0280762	-0.0308228	-0.0588989
-0.0302124	-0.0292969	-0.0595093
-0.0311279	-0.0274658	-0.0585938
-0.0305176	-0.0253296	-0.0558472
-0.0289917	-0.0231934	-0.0521851
-0.0262451	-0.0213623	-0.0476074
-0.0231934	-0.0195313	-0.0427246
-0.0216675	-0.0170898	-0.0387573
-0.0216675	-0.0128174	-0.0344849
-0.0201416	-0.0115967	-0.0317383
-0.0189209	-0.0125122	-0.0314331
-0.020752	-0.012207	-0.032959
-0.0231934	-0.0119019	-0.0350952
-0.0250244	-0.0134277	-0.0384521
-0.0289917	-0.0134277	-0.0424194
-0.0375366	-0.0112915	-0.0488281
-0.0424194	-0.0115967	-0.0540161
-0.0405884	-0.0158691	-0.0564575
-0.0341797	-0.0247192	-0.0588989
-0.0250244	-0.0344849	-0.0595093
-0.0128174	-0.0405884	-0.0534058
0.00610352	-0.0448608	-0.0387573
0.0320435	-0.0473022	-0.0152588
0.0622559	-0.0457764	0.0164795
0.0958252	-0.0396729	0.0561523
0.13092	-0.0265503	0.10437
0.168152	-0.00579834	0.162354
0.212708	0.020752	0.233459
0.257568	0.0521851	0.309753
0.292969	0.090332	0.383301
0.315247	0.136108	0.451355
0.325623	0.185242	0.510864
